Time,ECG_DATA,TYPE
['2020-08-18 12:55:32'],['-1806 -337 -781 368 -592 -1159 1289 394 -1915 -1276 -343 -111 45 -658 -742 -49 28 -428 -802 -583 -574 -801 212 139 -425 -629 -1090 -640 112 -97 -311 -130 -617 -1223 -558 319 1087 -1333 -1736 -328 400 351 -463 -454 -965 -645 -440 -4 -411 -225 12 -486 -216 -767 -527 -569 -200 -67 -207 -323 -540 -373 -395 -355 -459 -203 -343 -35 -345 -665 -353 -356 -523 -325 517 -427 -794 -276 -524 -54 -287 -452 -40 -415 -434 -470 -468 -302 -194 -108 -196 -325 -610 -617 -245 -247 -81 8 -591 -659 -40 -168 -255 -575 -945 -487 751 -63 -620 -644 -889 -238 880 -694 -1605 -213 -122 175 76 176 -640 -865 -861 -1032 489 119 190 17 -272 -1071 -617 -279 26 216 -589 -453 -85 128 -308 -697 -637 -422 188 231 -294 -597 -646 -691 -264 614 790 -821 -1083 -268 -683 -444 456 232 -388 -303 -504 -523 -130 28 -382 -411 -260 -101 -293 -352 -71 -98 -100 -351 -587 -638 -346 -166 316 -119 -45 -152 -751 -768 -383 -71 -173 1013 33 -1530 -135 -290 -110 104 -307 -528 -106 -87 -95 -149 -561 -257 -407 46 -267 -271 25 -95 -628 -590 163 148 -103 -902 -241 88 -104 164 25 -400 -1074 -524 297 -46 645 164 -1287 -348 -191 44 -124 -261 -134 -50 -192 -174 -462 -433 -40 -151 -199 -95 -295 -257 -21 -354 -20 -269 -505 -330 -18 35 -186 -40 -180 -560 -82 -248 -278 -438 150 563 -1135 -171 296 -169 -452 -618 343 -77 -381 -339 -381 -69 77 61 -254 -371 -587 -549 29 296 285 -341 -623 -312 -29 -230 -384 -237 -30 -26 86 -336 -323 -496 -293 -289 709 160 -1163 -328 -253 167 -123 -74 -249 -138 -202 -483 -60 -136 -202 -421 196 29 -105 -161 -291 -457 -199 -372 -104 300 176 9 -128 -605 -799 145 283 93 -200 -87 -350 -506 -38 516 -316 -756 -150 262 233 53 -709 -587 258 -152 -171 -87 -280 106 31 -595 -195 -8 -216 33 -442 -458 172 409 -195 81 143 -223 -2238 -1513 2324 1063 71 -364 -365 -757 -1275 -123 266 590 630 130 -548 -976 -604 269 341 121 342 -774 -35 -23 -168 -128 -140 82 -137 221 -285 -226 -376 -286 159 244 -87 -357 -173 -221 150 74 -141 -102 -595 -475 266 390 -280 580 364 -1240 -692 -119 732 113 -69 -243 76 224 -154 -84 -822 -795 243 956 433 -152 -522 -703 -21 -34 242 -130 -317 40 54 -117 8 -102 -355 -110 -35 -101 -23 13 -269 277 -251 -466 -60 687 -464 -791 260 110 320 -135 -116 -774 75 297 188 39 -393 21 -204 -169 -61 58 -193 165 -279 -104 278 -308 -70 -162 -162 -77 246 36 -100 -309 -43 -100 199 90 -330 -99 -164 -214 -104 905 64 -907 -218 125 378 -90 -173 -204 -41 209 204 -268 -364 -33 83 264 -440 -19 -42 -83 125 23 290 -438 -617 -239 261 484 245 74 -407 -783 -84 637 310 -102 -165 -726 119 271 940 -398 -1087 42 146 493 -83 -84 -472 -176 214 64 123 9 -291 -65 -307 14 137 315 -138 -350 185 13 46 -438 -134 102 40 38 37 117 118 -387 -355 292 330 -548 344 491 -530 -177 -171 309 89 24 62 -254 -329 156 270 -162 0 175 -4 -151 -72 -215 323 3 24 -16 -152 -114 40 429 -149 -183 -60 -75 361 9 -213 -210 -211 12 1044 -408 -934 309 232 17 -37 155 -75 12 -264 192 73 -96 44 -165 -54 101 35 65 92 -38 -101 -66 -33 -42 237 25 44 44 -111 -81 -196 161 181 88 249 -411 -424 21 584 186 -296 -35 71 18 -52 130 69 -94 -149 -31 198 70 156 -154 -155 -93 132 283 -72 -33 38 -22 -281 384 -129 76 -29 179 -83 -219 -25 -57 346 192 198 -188 -340 -397 199 765 473 -640 -54 49 23 48 152 132 14 -191 -73 27 212 307 -165 -107 -239 197 106 156 70 -29 -139 78 -200 51 84 157 204 -170 -95 -54 155 106 -86 -197 33 26 1019 -578 -816 13 332 410 89 70 -288 -17 -15 160 -38 10 30 266 39 -215 184 27 -133 -15 54 148 186 -231 105 100 9 -9 -99 104 190 116 -190 76 -21 497 75 -164 -628 -76 734 -77 37 -232 148 14 30 144 182 87 -301 -366 415 501 214 -157 -247 -77 -12 262 -4 254 132 -298 200 312 -47 -37 -158 -224 413 143 146 -113 126 36 76 -236 -102 47 491 836 -803 -147 -118 325 283 104 68 148 -240 -300 242 57 434 127 -20 -251 -66 159 205 -47 28 207 -33 43 182 -19 -3 165 45 -150 -48 243 353 402 -67 -170 -306 -100 -4 932 724 -905 -7 102 322 263 -154 14 167 -130 113 181 127 -74 97 274 82 10 -115 -93 226 149 302 167 -145 -4 -160 258 102 139 58 146 187 65 -137 -85 -137 14 362 1116 -214 -916 155 0 361 205 95 -38 151 82 167 -142 -157 -39 415 404 5 -115 -169 125 329 47 13 46 41 298 136 65 -265 102 213 234 109 -72 392 -140 -360 -53 354 868 -374 -400 97 189 229 192 7 32 -78 16 185 199 115 98 129 -266 24 171 210 153 45 52 97 99 -53 64 190 104 -38 207 -73 222 169 173 22 -353 37 70 1020 74 -785 162 127 180 214 51 -101 39 243 131 -84 -29 220 259 -70 -9 142 46 108 29 359 -158 -146 287 60 237 130 -203 -56 106 275 166 17 87 97 74 -142 475 -35 -564 316 401 -42 250 -68 199 0 -74 147 0 129 161 285 -17 18 -53 217 135 121 -150 14 327 100 201 -77 -74 142 244 4 114 20 273 -25 -216 -36 822 574 -669 -215 -6 284 315 321 2 -249 47 220 153 -20 37 196 224 -88 -38 66 278 178 -69 145 181 32 32 -20 143 -60 219 228 247 156 -85 -237 -334 222 882 724 -753 -46 -5 305 243 165 100 -50 37 113 282 -71 174 82 90 -95 32 216 206 37 79 38 87 156 160 -147 102 -24 334 227 133 18 -181 -6 -43 91 186 839 -482 -195 139 -40 -85 361 542 74 -82 -321 138 223 193 8 -79 159 252 21 29 101 74 -25 121 217 0 179 -168 -115 509 172 -14 -100 98 -19 -218 225 1288 122 -957 -344 205 532 341 54 -195 82 -88 223 189 -14 111 256 44 165 -132 -67 51 190 475 -95 -17 187 103 -190 -50 176 405 184 153 -85 -52 -53 12 -166 783 693 -661 -69 13 280 141 480 -75 -123 -5 177 372 0 -55 287 37 -25 70 -72 37 304 262 196 -177 -41 99 109 255 -121 122 160 227 149 10 -129 134 -147 -158 665 829 -447 -581 118 56 578 66 90 -59 -103 82 72 268 200 76 96 3 13 102 84 123 -18 136 248 23 102 112 -44 14 -144 402 301 -15 -47 1 393 167 -42 -384 -169 -20 1190 406 -843 -118 121 178 159 161 -63 319 65 -208 129 229 313 -182 -103 264 176 -140 8 208 216 130 -98 -19 325 65 42 58 -114 241 294 211 -54 -58 178 -14 -76 -73 257 1126 -760 -526 355 258 168 80 327 -241 -69 147 -7 131 316 -78 146 92 52 -41 17 189 80 265 129 40 -63 207 127 -90 27 49 265 -62 124 424 -77 85 -38 -207 -326 324 1216 -121 -507 318 128 -20 257 -127 397 189 -375 163 212 45 237 -52 77 132 -94 167 -97 163 340 -86 158 29 90 136 9 22 114 236 -261 217 356 361 -403 45 92 254 -239 -489 879 373 -94 45 -58 -222 190 321 169 -127 38 -64 207 304 18 38 4 229 -128 -95 143 432 184 -43 -51 -172 354 197 -176 23 274 101'],0
['2020-08-21 15:01:31'],['140 254 28 -234 -376 -196 365 -33 -241 -201 -661 -328 361 1012 -25 -1100 -300 -18 143 48 -96 -82 -219 -7 30 -124 -71 -108 -214 -102 100 0 -265 15 148 -345 6 309 -415 -107 22 -123 275 57 -546 -338 -12 -413 837 463 68 -312 -1201 -1004 357 544 1816 473 -1740 -729 -380 154 106 230 736 166 -362 -627 -439 305 -50 -45 194 17 94 -232 -109 -20 -193 -76 -131 267 302 -456 47 334 25 -235 -422 -231 297 265 220 -203 -357 9 166 57 -284 -220 -375 932 83 -992 124 -133 -11 105 291 48 -242 -357 -13 345 -38 -172 -63 133 124 -39 -260 -86 133 181 39 82 -264 -142 -68 105 19 263 19 -109 -106 -289 -240 -71 314 516 310 -206 -445 -525 -15 190 72 992 259 -1143 237 -53 -162 75 246 45 67 11 42 -72 -299 -48 -25 380 325 -134 -313 -181 213 201 -246 -29 129 152 -35 -224 21 10 144 111 -181 9 106 24 -61 -63 41 363 81 -176 -208 -179 -10 -197 1024 577 -1077 -346 124 120 132 62 152 -34 91 -107 -147 -68 114 176 96 -140 -16 253 -170 54 14 -100 -5 -23 -8 386 38 -177 -195 -1 227 -101 93 -3 23 59 92 199 -42 -176 -58 -20 -348 -126 1447 -168 -901 -27 -196 215 149 176 236 57 -405 -321 310 227 79 63 -68 -30 102 -65 -184 -80 427 99 82 -4 -150 54 77 32 -48 19 141 -4 -94 168 339 -43 -224 20 -224 -175 -54 1108 789 -962 -554 12 305 85 94 182 82 -94 40 175 -126 -50 94 45 134 299 -95 -94 93 -186 133 363 62 -29 -99 -95 158 223 86 -10 -103 -8 91 124 69 -102 17 247 95 -11 -21 36 -208 -127 16 1103 399 -1043 71 -112 77 377 174 201 -4 6 -151 -100 65 206 91 140 47 -33 30 -10 63 -100 178 192 81 13 -90 104 68 38 52 30 -19 -136 326 101 109 78 -115 83 -38 -140 -37 299 336 219 -165 117 -243 -252 -162 817 160 -624 284 -48 114 -122 90 205 49 85 191 124 -178 -10 -71 176 161 50 250 25 -237 -40 175 -17 256 61 -8 70 -45 18 94 171 58 -42 66 50 75 -5 100 20 -51 199 155 174 -11 -155 -188 -136 182 1308 -142 -710 163 -167 163 127 150 163 129 7 20 -132 9 151 93 183 18 -77 -40 205 192 -10 -39 61 54 -21 216 -1 129 37 120 124 -82 -164 100 102 248 238 -16 68 -59 -48 -301 -170 944 441 -478 203 -162 67 140 -120 278 222 -2 -172 23 286 -82 57 92 9 95 92 35 -187 190 246 -22 61 26 60 -128 91 285 108 -54 74 -50 52 26 32 308 59 13 7 -49 -288 -67 1022 582 -801 -302 226 80 197 160 23 -94 33 116 115 19 -75 204 40 65 139 -62 -194 295 178 142 64 -239 110 139 72 -4 166 -86 4 315 232 -97 -204 -116 85 128 366 233 -37 -222 -80 -150 -237 653 993 -465 -714 278 35 182 37 82 135 167 19 -77 -109 150 178 20 95 -76 215 195 28 -142 -99 47 179 273 119 -24 6 -209 70 162 136 261 20 -45 -83 95 -74 -120 273 535 -58 -262 -134 -184 -349 1049 900 -798 -541 -73 197 500 47 -3 -80 -107 40 73 186 43 -6 130 156 -33 45 -9 -2 -126 120 326 41 91 -142 -66 -79 207 202 121 78 -13 -83 8 161 -2 143 104 -50 213 184 53 -324 -278 -175 761 1191 -661 -393 -74 -352 335 380 292 26 -174 -14 43 9 -59 83 246 63 109 -201 111 118 7 35 29 63 134 44 -3 60 58 112 59 116 -189 -44 50 67 337 123 174 -14 -279 -315 -31 1 1067 741 -818 -145 -215 22 227 232 265 124 -171 -99 50 -39 204 63 22 121 -17 62 -54 13 312 113 -90 73 -287 214 274 45 52 -20 75 154 -147 26 182 -70 207 -46 -49 131 208 60 -151 167 185 -160 -306 -41 1195 -403 -668 140 125 271 -43 147 13 154 -14 -212 43 228 224 131 -26 -153 131 1 -100 93 105 353 -4 -42 -129 -136 168 93 125 71 131 -105 5 128 49 142 -57 -73 80 142 -55 107 180 126 19 31 -200 -174 -254 517 1268 -369 -552 -169 170 194 174 402 -7 -137 -235 80 41 38 223 71 21 103 78 -234 62 68 132 217 24 76 40 -140 -126 77 86 299 130 -147 39 10 -169 65 130 167 74 0 38 94 38 -31 31 -73 -141 -188 827 992 -628 -996 -7 214 398 346 53 -53 -198 -56 163 64 60 -14 -39 192 74 -49 43 78 81 22 -60 159 8 48 66 -14 124 22 211 -71 -122 112 84 -233 -29 478 157 195 -26 -454 -544 21 1050 495 -547 79 98 -148 -81 12 324 93 32 -4 8 -41 125 52 39 41 -126 301 -93 -9 144 12 81 119 -85 -18 -8 -114 198 274 249 108 -277 -263 -161 117 214 160 307 308 15 -195 -665 -353 230 1374 712 -978 -45 -172 -53 399 221 -11 -23 -177 235 205 71 -199 8 194 47 114 -11 34 83 -68 37 35 56 179 -16 11 2 68 -2 -101 204 194 146 -170 -93 80 -7 50 159 137 67 28 56 -28 -175 -383 112 1372 -561 -391 -11 -249 230 345 57 -124 -44 195 52 -67 100 -98 -12 51 110 232 41 -203 -21 -15 71 204 18 38 89 -153 60 71 -67 81 234 113 120 -104 -239 -43 173 286 126 162 -102 -88 -37 -153 -35 -299 1207 476 -999 -81 -73 -51 206 259 123 117 -70 -140 -42 158 27 37 66 -57 154 146 -40 -106 195 -40 30 -72 119 -89 74 418'],0
['2020-08-25 14:49:23'],['192 -98 -31 320 342 515 342 -29 130 217 405 191 183 21 284 265 481 461 -60 81 515 930 -426 37 447 423 255 -46 84 273 486 538 192 -98 -31 320 342 515 342 -29 130 217 405 191 183 21 284 265 481 461 -60 81 29 292 461 391 103 -15 314 -99 1048 211 -589 342 424 343 148 236 103 179 576 328 -362 100 501 693 214 -290 -206 519 587 303 175 230 29 292 461 391 103 -15 314 -99 1048 211 -589 342 424 343 148 236 103 179 576 328 -362 100 501 693 214 -290 -206 519 587 303 175 230 169 -32 282 324 364 204 241 146 25 298 462 308 328 86 3 -229 414 1478 89 -391 198 171 406 275 259 258 167 121 97 616 620 -2 -57 259 225 151 340 334 314 104 281 397 262 111 193 189 81 408 440 458 168 -26 315 48 373 270 165 -53 913 943 -615 -227 219 433 -57 259 225 151 340 334 314 104 281 397 262 111 193 189 81 408 440 458 168 -26 315 48 373 270 165 -53 913 943 -615 -227 219 433 446 463 209 129 69 118 385 178 266 184 364 397 171 77 240 153 213 403 278 242 243 194 146 229 369 95 196 235 376 485 103 99 6 325 106 828 95 -183 314 160 287 189 387 176 301 382 209 18 181 272 346 275 273 304 280 116 57 265 300 255 272 208 344 216 6 325 106 828 95 -183 314 160 287 189 387 176 301 382 209 18 181 272 346 275 273 304 280 116 57 265 300 255 272 208 344 216 231 230 136 103 266 445 498 213 -207 -188 866 1155 -327 -229 79 223 348 495 632 306 -101 -142 205 348 309 366 308 364 306 -199 30 535 231 230 136 103 266 445 498 213 -207 -188 866 1155 -327 -229 79 223 348 495 632 306 -101 -142 205 348 309 366 308 364 306 -199 30 535 173 274 287 202 175 280 250 178 263 223 156 218 100 399 532 156 97 -361 1053 664 -604 34 303 402 441 372 216 -12 -55 153 477 299 173 274 287 202 175 280 250 178 263 223 156 218 100 399 532 156 97 -361 1053 664 -604 34 303 402 441 372 216 -12 -55 153 477 299 264 179 273 161 237 175 208 416 142 159 179 286 365 97 171 238 316 426 36 169 246 42 147 76 1082 638 -740 -79 278 455 418 337 125 11 214 255 190 184 361 468 94 -93 160 174 400 277 239 228 204 394 180 113 -98 142 468 198 440 448 130 157 -6 -210 148 209 125 11 214 255 190 184 361 468 94 -93 160 174 400 277 239 228 204 394 180 113 -98 142 468 198 440 448 130 157 -6 -210 148 209 1141 526 -487 -39 141 264 155 352 402 238 263 84 118 212 68 398 344 238 189 136 111 182 137 276 299 308 252 47 188 153 141 -18 1141 526 -487 -39 141 264 155 352 402 238 263 84 118 212 68 398 344 238 189 136 111 182 137 276 299 308 252 47 188 153 141 -18 462 408 394 271 -31 -135 61 23 585 1360 -539 -180 121 67 325 334 411 272 125 86 71 142 233 252 360 197 225 156 105 276 163 172 219 328 199 218 120 104 248 148 190 216 314 337 361 3 11 170 74 100 915 476 -308 225 72 273 265 236 81 172 411 260 173 93 219 328 199 218 120 104 248 148 190 216 314 337 361 3 11 170 74 100 915 476 -308 225 72 273 265 236 81 172 411 260 173 93 49 191 357 361 203 -40 158 243 342 290 186 174 91 108 93 332 256 308 118 361 115 20 103 -25 157 1135 549 -751 -124 289 361 268 276 191 276 287 -149 -328 438 613 218 287 106 151 -21 -68 254 315 446 89 88 206 181 259 24 -12 156 341 375 323 70 1 238 91 276 191 276 287 -149 -328 438 613 218 287 106 151 -21 -68 254 315 446 89 88 206 181 259 24 -12 156 341 375 323 70 1 238 91 50 -44 662 923 -482 -246 363 241 233 96 212 60 247 541 22 -74 -216 243 630 364 12 -22 211 139 137 167 167 287 168 78 164 287 50 -44 662 923 -482 -246 363 241 233 96 212 60 247 541 22 -74 -216 243 630 364 12 -22 211 139 137 167 167 287 168 78 164 287 182 87 -44 41 292 271 246 202 252 157 -144 78 -262 512 998 -210 13 117 63 181 101 114 189 466 50 -76 180 207 233 136 -117 193 233 299 438 101 -120 -47 77 256 234 343 240 137 0 -32 -51 89 261 210 338 326 207 -72 -50 -129 75 -5 843 816 -534 -27 67 191 233 299 438 101 -120 -47 77 256 234 343 240 137 0 -32 -51 89 261 210 338 326 207 -72 -50 -129 75 -5 843 816 -534 -27 67 191 60 169 274 292 74 -51 89 209 52 133 303 69 242 72 29 50 77 321 277 110 105 139 62 -5 109 356 -22 7 140 320 440 -33 60 169 274 292 74 -51 89 209 52 133 303 69 242 72 29 50 77 321 277 110 105 139 62 -5 109 356 -22 7 140 320 440 -33 115 -99 -124 -276 668 1146 -445 -8 -148 22 212 61 324 427 130 28 -83 -102 244 150 238 134 248 90 1 176 10 140 246 153 63 83 115 -99 -124 -276 668 1146 -445 -8 -148 22 212 61 324 427 130 28 -83 -102 244 150 238 134 248 90 1 176 10 140 246 153 63 83 72 200 187 92 101 89 31 141 169 213 50 -26 -141 570 693 -533 -51 34 293 377 253 120 -23 -57 30 58 240 258 63 133 120 120 85 128 -108 42 144 256 230 242 32 -26 -90 -21 108 239 190 152 79 117 157 149 -184 -250 -47 223 1036 454 -556 -232 -28 21 233 452 85 128 -108 42 144 256 230 242 32 -26 -90 -21 108 239 190 152 79 117 157 149 -184 -250 -47 223 1036 454 -556 -232 -28 21 233 452 279 -1 -116 -140 125 137 30 106 278 236 190 32 -104 -266 -23 386 308 393 -56 -48 -90 2 92 151 64 6 241 223 170 133 -248 -22 10 66 80 751 105 -758 -77 105 412 184 -8 201 11 62 100 -73 93 -22 268 127 -31 213 78 0 -44 -65 58 260 -1 231 107 13 10 66 80 751 105 -758 -77 105 412 184 -8 201 11 62 100 -73 93 -22 268 127 -31 213 78 0 -44 -65 58 260 -1 231 107 13 28 21 163 -280 7 130 283 332 101 -32 -200 -211 -275 1003 -183 -252 326 -130 46 -69 158 201 197 39 60 -97 -78 0 357 221 72 151 28 21 163 -280 7 130 283 332 101 -32 -200 -211 -275 1003 -183 -252 326 -130 46 -69 158 201 197 39 60 -97 -78 0 357 221 72 151 -228 97 83 0 -61 112 363 156 7 -114 -16 -176 90 398 202 114 -9 -97 110 22 -213 51 842 65 -515 143 66 261 202 229 -49 -226 -135 127 186 118 148 137 37 -20 50 -127 108 32 143 211 135 30 -33 -67 61 99 152 126 -17 -25 81 89 160 144 -8 -14 -48 -231 -135 127 186 118 148 137 37 -20 50 -127 108 32 143 211 135 30 -33 -67 61 99 152 126 -17 -25 81 89 160 144 -8 -14 -48 -231 74 1148 -448 -444 -50 13 296 325 -20 -70 150 -41 -79 77 252 66 -101 -168 317 236 32 21 -134 62 191 -55 197 55 -90 263 138 -47 -12 9 105 -62 145 118 267 31 -115 97 -166 -116 232 967 -200 -632 127 10 229 214 109 28 0 -8 -12 9 105 -62 145 118 267 31 -115 97 -166 -116 232 967 -200 -632 127 10 229 214 109 28 0 -8'],0
['2020-09-05 11:35:02'],['-618 -716 -644 -838 894 -881 -1090 219 -388 -540 -332 -341 -487 -255 -919 -534 183 0 -47 -273 -902 -1800 -72 174 688 72 -844 -861 -339 -92 -448 -415 -605 -542 140 90 -98 -725 -811 1036 -1824 -1282 44 110 412 698 -742 -1032 -624 -1570 -604 180 984 503 428 -413 -2333 -2156 -120 925 628 732 575 -409 -1391 -1349 -1601 -640 985 702 1270 -123 -1030 -1909 -1267 -87 382 865 41 -937 -509 -769 -265 945 252 -265 -792 -811 -320 -748 -805 686 157 912 987 -1239 -2803 -1598 374 440 621 403 -127 16 75 -886 -1014 -1327 -509 151 1495 1280 -879 -715 -808 -794 -536 -72 558 72 -388 94 -381 -703 71 96 -521 -297 -268 -167 72 -13 -17 -487 -494 -297 -14 -61 -34 -324 -29 -87 -268 -493 -168 -182 175 33 -431 127 -194 -284 -558 -5 157 106 -355 -540 -433 -349 672 246 -45 -616 -778 -290 -48 351 -70 244 118 -326 -733 -339 -18 172 -51 -23 171 -223 -665 -331 -161 64 1068 -1028 -671 -275 -336 257 502 -29 -187 -474 -436 -28 -2 194 -46 -12 -494 -270 116 359 -14 8 -438 -755 1 271 444 94 -552 -372 -146 210 389 -54 -1218 -1268 1996 458 -585 -380 -521 -527 -471 265 1185 1282 -787 -2312 -325 499 778 394 -80 -353 -2024 -1311 789 2620 2505 -1077 -3416 -913 474 -944 -2138 151 5763 5185 -1378 -4453 -5565 -4947 296 2412 4253 2948 3264 5596 -4273 -11568 -8612 -1184 6768 6600 -4569 7024 13181 595 -13845 -16481 -2961 4978 11442 10736 2254 -4582 -5286 -3665 -2185 -488 847 702 3439 1644 106 -739 -2064 -874 -382 -1055 -343 643 711 70 -854 1112 1445 87 -1372 -1741 -246 416 61 94 -150 -659 404 1075 1784 140 -2335 -3124 -1497 206 1236 2826 3259 637 -2106 -4857 -4477 779 2642 2861 2168 -79 -1850 -2765 -2115 -1379 927 2861 1701 -105 -821 -1927 -1001 186 -134 813 431 128 -179 -46 -1514 -1296 -718 462 2893 45 -865 -2126 -2012 -1002 778 1773 1734 100 -1650 -1686 -467 -369 -582 0 1703 1823 -1734 -2676 162 207 -459 395 4 -314 1203 2220 -1474 -3045 -3566 -859 2544 3710 3444 1720 -1494 -3306 -6060 -6170 -3336 5944 13430 6407 -5461 -11651 -7016 -2107 2154 4051 5481 2946 -532 -2092 -3320 -2449 -1123 1142 1216 -492 1385 1305 425 -416 -1425 -1430 -644 -239 -57 330 859 1384 91 -1173 -2143 -1735 124 2289 1117 188 -1306 -2717 -967 374 808 817 663 197 -935 -757 -1155 -1182 -798 1066 1581 148 162 -1081 -1041 -826 -250 -177 800 -87 -547 -403 -682 405 1031 -35 -897 -1742 -2637 250 3019 1260 -1210 -1633 -1136 -27 173 -469 -223 215 111 -65 -184 -260 -867 211 791 -1253 -445 406 -193 304 566 -517 -564 -523 -342 226 124 -391 202 133 125 -716 -945 -153 240 446 192 -522 -612 90 -152 -305 -522 68 290 72 58 -573 -535 -527 193 67 -99 606 -61 -496 -688 -876 858 451 -333 -245 -175 -727 -132 1042 -130 -187 -242 -128 -478 -649 -243 446 664 158 -310 -524 -533 139 -425 -612 299 767 229 -215 268 -1692 -47 672 -185 -113 521 -380 341 179 -1095 -105 62 -558 221 319 539 965 -1087 -1375 -693 136 1244 426 563 -117 -1043 -1063 -492 505 1035 1187 -620 -1142 -741 -151 -437 434 1449 541 -1123 -1390 -166 35 357 236 -368 64 586 63 -257 136 -384 -67 -606 -585 138 585 210 879 581 799 -606 -1827 -5115 -3056 8680 4685 -1809 -1590 -1659 -1938 -639 1096 1328 1077 -584 -478 -435 272 439 332 -617 -699 -340 -378 1096 -300 -188 -121 886 1312 -83 -1428 -1460 -2607 1090 4014 397 -1585 -1607 1340 -1099 1133 1707 -2559 -3486 -56 1278 3754 742 -2896 -80 1212 -1322 -3750 882 3400 2512 -689 -460 -928 -1690 2352 554 -1046 -1224 980 1140 -1014 373 -158 -39 -13 195 -173 -302 -41 309 1346 -697 -960 255 419 496 263 -116 -488 -444 -21 905 534 27 407 -336 -666 174 177 257 503 227 371 -536 -569 417 281 342 318 208 -380 -1 -218 245 51 804 632 -433 335 -418 -245 -386 780 725 397 -192 -489 -114 -435 693 477 382 230 -322 -215 245 490 151 -177 -192 -44 720 459 173 -271 -363 31 435 299 -15 -73 688 554 -758 71 129 286 535 412 492 -201 -440 -1090 -526 -72 1291 858 1238 467 335 -572 -1441 -1635 -1290 -183 830 2444 3327 3266 566 -329 -5314 -4654 -5765 -344 627 9874 7800 12940 -1371 -930 -23381 -19907 -32000 12494 32000 -22467 -32000 -30138 -13807 2710 11745 12455 8681 3130 -4848 -7225 -7599 -2351 2950 7437 9195 5546 -2325 -11645 -13937 -15017 -1066 15735 32000 22909 -32000 -32000 3415 10701 18733 11285 2424 -3465 -4252 -7097 -4160 -2769 1298 2548 3789 1478 2571 -637 -240 -2068 -2912 -462 854 -1531 -903 882 3100 2865 -1277 -2460 -1646 -324 647 612 -567 -202 453 929 1106 -51 -1008 -1247 -2346 303 2667 542 -149 -530 -388 -191 -926 -534 -122 73 892 780 517 -632 -877 -2535 -152 2699 1144 -550 -1271 -85 -55 67 333 467 -1083 -431 65 177 -40 205 422 59 -302 -883 -2177 -1081 3313 1749 -683 -701 -1606 -1868 1002 289 661 570 -645 -323 159 324 595 -413 -2279 -2250 1600 3160 1623 -1171 -1642 -884 -115 -378 -544 -465 1591 1913 -836 -247 -699 -353 -1200 -268 829 -23 -111 637 492 453 -1641 -1138 603 -542 778 485 209 517 261 -908 -400 10 -218 -216 -505 -330 678 1777 409 1203 -338 -1496 -3223 -1772 -773 2221 1941 4271 1877 2427 -3010 -3309 -7217 -4241 -3845 1993 7788 14313 7060 4833 -9783 -13379 -32000 -32000 32000 32000 -16807 -17244 -26494 -9682 -4485 9135 7932 11356 2370 1178 -4641 -3542 -4416 -1474 -120 1354 -64 -901 -627 701 6088 7748 1049 -5822 -18165 -6121 8451 8991 7050 55 -4700 -6157 1064 679 -1269 -1003 1278 1983 1247 500 -321 -860 -1461 -1707 868 1039 667 -142 340 845 -376 -748 -295 -886 -586 405 869 904 1115 459 -931 -1783 -1721 646 1531 1735 1218 -441 -1360 -1305 -195 459 957 300 -345 135 194 527 -8 -770 -454 384 125 260 508 22 5 -77 -48 -10 -669 -465 770 678 510 173 -630 -793 -103 -139 681 837 50 -191 -209 -139 -77 -110 230 -38 1185 -114 -1451 88 300 671 465 -133 -542 -405 -105 143 576 351 -2 -22 277 -193 -324 57 171 186 282 284 203 -98 -66 -159 -95 230 393 101 -58 -40 -211 45 948 1480 -1171 -1654 -10 669 1061 316 84 -217 -491 -194 352 258 311 363 -84 -453 209 791 224 -50 104 -191 -149 -21 323 337 512 456 -125 -76 -226 -300 -31 161 861 1232 -380 -878 206 87 62 133 188 370 504 92 69 -147 -367 244 346 222 209 262 253 20 -35 -221 -76 478 398 164 333 213 122 1 -494 -205 55 440 1499 -373 -530 220 22 -25 -260 189 648 776 306 -64 -595 55 206 494 366 190 -17 -436 145 452 609 207 -288 -85 297 315 300 -37 -209 -91 1247 963 -1148 -592 407 624 475 411 -211 -308 165 3 214 292 352 687 273 -342 -620 -449 314 562 792 403 359 -24 -532 -108 -157 299 222 501 -94 737 1088 -1082 -544 -715 90 1158 464 75 27 94 19 312 95 29 -52 -50 296 269 87 588 446 -250 143 172 -425 -41 702 314 304 219 -54 -173 759 8 -775 323 778 150 236 11 -360 -9 376 736 -17 342 -210 624 -556 -592 348 724 698 694 -453 -971 143 567 564 -72 113 550 443 41 -431 -577 1168 80 0 153 177 208 143 130 142 184 -144 72 473 397 87 113 -19 -13 32 434 211 211 268 297 -306 54 532 -99 -17 159 445 722 143 -362 -226 -159 20 1439 847 -927 -212 423 219 6 -133 384 454 217 -86 51 263 250 52 270 -46 155 205 -20 221 381 250 -225 262 77 81 230 59 186 235 596 -1 -250 170 206 -19 629 624 -760 251 334 245 391 208 101 -30 -67 78 266 254 421 94 1 138 -91 345 364 -70 -166 200 483 176 310 -16 105 173 101 294 98 268 -575 54 -132 309 -23 95 284 923 556 1118 -89 -1833 -1804 -1198 73 985 3066 3358 2465 -930 -1713 -5352 -3494 -3897 1695 2132 9869 5737 10381 -4009 -2961 -23617 -14894 -32000 18142 32000 -30459 -32000 -28873 -11353 1964 10581 13522 10175 5322 -2811 -4191 -7650 -3907 -3129 2003 2036 5208 2366 2234 -1070 -1255 -2902 -1982 -1380 -112 683 1506 2439 1083 1048 -520 -763 -3009 -1003 -2640 1476 -145 4629 1620 4765 -354 338 -9826 -4658 -14888 -4278 32000 -20579 -20788 -9112 -4559 5951 3518 3928 385 1154 -2192 538 -2486 -628 -1887 567 -89 1896 1017 1170 -376 -1370 -2526 500 1721 -296 -1177 -81 321 924 458 -797 -654 29 464 299 -455 -352 406 -11 106 -376 10 229 58 -195 -154 -443 -539 306 313 480 -343 -428 -491 302 169 -223 -156 -249 112 253 105 -560 -107 -654 141 425 -471 228 -39 -383 -440 183 210 75 -150 -428 -213 129 226 75 14 -545 -500 291 263 -53 -506 -77 230 191 -149 -388 -312 -228 42 414 68 -76 -373 -475 18 233 127 -349 -185 80 61 -131 -150 -2 -456 429 512 -893 -90 45 11 167 135 14 -233 -495 -266 86 189 165 42 35 -308 -472 -204 206 219 211 0 -571 -448 406 335 -153 -292 -337 189 15 71 -131 -261 -49 -17 -111 167 225 135 -281 -714 -242 247 1164 -134 -911 -26 127 -37 -233 66 -17 63 -200 -238 357 160 -152 -301 -164 -255 284 351 -71 -36 -375 -12 198 23 -118 -327 39 372 -20 -66 44 -203 -104 -157 140 -219 12 381 236 -330 -515 -365 298 697 -670 251 154 -141 -206 -197 349 35 -289 113 -173 -293 235 282 132 -185 -201 -470 327 70 131 85 -259 -116 -60 391 79 -386 18 -121 2 283 48 -147 -146 39 196 10 -204 -279 -293 1063 -588 -506 117 14 498 67 -234 -562 275 93 -115 -24 367 9 -333 -1 103 169 -310 -190 237 54 116 -93 105 101 -131 312 -355 -303 -147 549 353 26 -108 -380 -4 116 -186 33 741 -467 -38 279 116 29 -307 -112 136 188 42 -117 130 35 6 50 -412 238 251 62 -180 -73 332 -57 -58 -333 300 130 184 360 -590 -231 125 -71 605 148 -104 -227 -540 283 667 603 -592 -736 617 699 -211 -647 -557 323 870 -116 256 -282 -906 -110 749 294 118 -174 -556 99 414 203 -178 -64 -96 80 -94 106 483 -158 -328 268 201 -134 52 -303 -213 -257 1409 631 -1053 -306 -320 126 216 456 382 -167 -230 -103 28 -203 337 101 172 325 -203 15 -275 31 436 -18 239 5 -121 22 2 1 245 384 -65 -107 -223 150 -291 671 641 -661 -93 30 225 214 16 85 -219 -3 110 278 385 21 -343 -254 289 -143 309 354 -75 73 45 -247 123 152 -41 -171 468 597 -184 -467 -39 400 91 -149 -159 1064 -459 -520 359 108 390 -136 -98 65 104 -397 409 195 69 440 -350 25 37 -145 152 285 86 47 481 -357 -202 259 -220 170 315 475 241 -156 -512 -215 -28 1110 1095 -1035 -365 132 334 569 227 58 -454 -148 53 249 662 292 -460 -60 37 269 182 -252 409 -80 145 194 -322 182 221 146 -93 -327 375 287 35 318 -332 -104 -144 1184 -389 -704 229 -107 379 211 349 -58 -140 -318 172 331 240 76 -190 -61 306 112 35 314 18 -103 -2 -65 527 -68 -257 246 340 148 204 -205 -454 -289 328 1600 -457 -739 28 118 -159 445 458 -62 -341 -163 141 248 343 33 165 -244 -127 44 366 140 -14 164 188 36 -108 185 10 92 64 263 200 -132 -28 -212 197 -100 1156 449 -1181 -420 320 718 -34 -129 104 399 271 -190 -138 -329 339 248 399 354 -178 4 32 -13 -86 579 -350 150 415 -10 182 261 -424 -58 298 386 392 -258 -122 -436 764 1544 -777 -959 114 207 510 533 349 -179 -405 -45 110 316 419 93 248 -124 -165 11 224 86 170 356 116 -28 53 -99 135 424 -38 -92 228 237 247 48 -155 -112 -42 29 1052 12 -538 39 152 56 225 76 457 227 -502 -160 297 691 254 -149 -193 -27 136 150 90 367 459 -261 57 114 137 281 -304 -115 447 602 273 -98 -356 -79 -151 -15 1094 652 -448 -167 -189 -191 369 489 538 148 -514 -51 72 373 403 225 -39 88 88 -203 -201 201 733 131 99 -305 -134 212 363 -9 -40 396 35 -94 228 367 232 -27 -190 -192 13 1379 184 -925 303 268 239 -94 17 169 274 368 -334 -52 397 349 -53 174 85 23 -35 54 314 -53 236 443 159 -57 -27 -68 172 124 141 247 160 179 163 39 -114 -157 200 -219 1308 305 -910 19 -56 477 157 323 25 -32 -64 -35 101 363 676 -65 -298 -12 44 422 108 209 -44 -4 375 11 169 -250 207 288 -53 -28 204 532 331 119 -505 -407 173 1201 421 -677 122 157 210 207 163 -90 40 75 334 197 107 87 -17 181 163 -113 196 254 45 135 67 259 68 209'],0
