Time,Period,ECG,DeviceID
['2021-01-16 14:53:05'],[16.0],['-99 94 13 27 -242 86 464 -33 -164 133 22 -193 21 -49 53 25 409 271 -176 40 -406 -186 -565 1370 822 -705 -169 -294 157 -197 227 33 345 31 -44 53 -250 122 55 165 93 -161 -146 91 303 -171 -35 275 -27 174 206 -250 -157 -192 60 372 334 213 -105 -167 -371 -491 52 1306 -268 -386 91 -397 105 298 -48 -131 198 -9 58 16 -51 253 -199 119 36 8 53 -118 -79 -79 268 85 229 -245 -133 70 139 -66 -188 307 11 191 36 175 12 -493 -538 -617 1487 1066 -866 -99 -287 -20 86 79 241 225 -273 -90 123 -38 -48 5 216 33 -15 -24 -108 20 44 129 236 -250 -72 256 173 -7 -239 -12 62 -130 -132 255 469 -54 126 -349 -383 -720 352 1691 -483 -500 -246 -36 -58 51 296 1 -1 46 -99 -149 169 21 -126 -17 232 149 -73 -207 -38 25 -69 354 -96 -41 19 13 99 -271 156 -212 86 59 223 327 -9 -322 -364 -286 -151 1360 -389 -347 7 -176 98 -163 198 222 -20 37 -287 -27 206 -1 29 -245 105 157 -5 -226 -70 170 197 35 22 -72 -276 7 140 50 -33 192 177 -45 -167 -102 -263 -631 1030 867 -530 -391 -205 39 62 136 120 195 -174 23 -111 -91 72 -30 156 39 -42 -216 175 5 50 75 -83 -70 65 48 54 -245 34 11 109 376 -156 -117 -194 -434 -139 1275 -311 -206 -356 -246 191 100 247 -317 113 175 -186 -248 206 -33 108 98 -29 9 -139 -221 42 314 39 19 -25 -166 10 129 -31 -139 -146 -47 305 472 110 -177 -341 -407 -750 877 1400 -476 -232 -325 -92 50 85 256 -223 92 92 45 -37 -125 70 -36 -82 -22 71 58 150 -174 -88 -176 173 276 -200 103 -3 -30 -97 -275 73 273 336 118 -64 -277 -175 -517 -479 1635 566 -610 -295 -448 38 147 175 -5 138 -26 66 -158 -167 102 -72 -115 244 208 -156 -175 85 -61 13 -101 5 153 129 69 -241 89 -230 63 -343 67 414 382 -21 -304 -27 -442 -419 -555 1589 864 -636 -513 -271 121 -163 249 119 167 -26 -161 -88 33 -129 35 54 70 104 -73 -75 -99 32 20 63 8 121 -116 -20 -80 -121 51 -74 19 341 362 -345 -119 -348 -434 123 1180 -47 -446 -216 -87 174 -320 269 56 81 -44 43 -291 0 123 184 -230 -49 176 -127 75 -262 189 122 -76 -3 83 -75 -77 -18 -68 -93 21 133 276 7 -55 -154 -217 -753 658 1236 -524 -286 -174 -59 5 61 166 15 136 -265 94 -116 -56 146 -25 120 -78 -15 -133 -3 -108 216 88 -319 477 9 -308 -91 7 55 106 -155 -100 162 179 73 -40 -70 -301 -576 -227 1585 279 -696 -208 -131 -230 164 364 -96 -94 53 161 -168 -1 -115 -63 129 77 29 -78 -187 37 -102 146 185 -12 -237 -75 162 -2 -51 -172 -43 -120 111 174 429 -98 -110 -333 -311 -754 724 1573 -278 -651 -285 -148 -95 283 145 237 -158 -56 -95 -13 -139 6 117 26 66 -184 -119 141 90 -196 -166 149 155 -196 121 -9 -21 28 134 -233 -168 -63 251 258 85 0 -48 -236 -164 -433 -361 1513 -283 -346 -166 -253 104 -313 143 344 319 -305 -121 48 -91 -112 2 234 -50 -3 -10 -97 -68 19 169 -84 -84 -58 102 120 16 92 -338 -108 71 139 59 98 -70 87 -170 -72 -449 135 537 -347 102 -233 -146 -172 343 221 -152 -249 220 -80 -78 -22 74 141 12 109 -262 6 -72 66 17 -2 36 -133 31 177 9 39 -279 -335 63 324 -54 161 63 195 -191 -444 -415 -820 1753 493 -611 -323 -230 -116 -55 282 -46 192 275 -115 -349 -10 74 -86 61 279 -73 -112 -169 29 -5 -92 206 -102 -93 259 15 -151 -148 53 -128 -34 240 -77 205 162 -117 -41 -285 -333 -633 1350 1148 -898 -386 -279 -29 -98 365 217 -196 53 80 -36 -245 -287 138 265 19 -79 -15 61 -212 0 -31 72 51 -104 -28 -5 191 -15 -66 -178 -190 147 -181 154 227 255 -53 -84 -351 -118 -999 460 1947 -355 -422 -576 -89 95 180 98 135 5 -55 -182 27 94 -160 -89 107 229 -146 73 -183 80 -16 -205 143 -2 5 188 -76 -10 -79 -188 119 -112 -42 55 205 184 -86 -205 -161 -214 -503 861 182 -251 -99 -358 -149 109 90 -117 206 -169 71 215 -259 -75 -37 -35 79 86 40 -154 -56 48 -29 9 -12 71 -51 -65 -25 -180 81 143 197 2 -103 -296 91 -438 -85 1088 85 -430 -240 -363 49 340 105 122 -143 -239 -21 41 81 -169 171 32 -83 28 -8 -272 148 219 -61 -24 -55 -46 -48 -85 95 -164 122 253 12 6 -291 -480 -451 1307 -118 -363 -264 -261 103 13 82 76 68 -24 5 -281 15 -114 315 33 -186 -9 86 -109 -228 198 150 -56 3 -136 -112 -105 65 -16 241 184 12 -107 -274 -249 -872 1216 1271 -432 -536 -488 -159 116 230 177 202 35 -286 -90 -38 0 -42 65 143 -60 -82 -239 50 45 130 -79 -66 166 4 -105 -195 -212 -162 371 632 -68 25 -555 -384 -729 359 1670 -457 -379 -390 -121 -28 134 -79 107 216 39 -223 -72 -131 -49 159 159 -73 -187 4 -3 10 -185 196 133 -1 -301 69 98 -162 -106 -95 116 240 369 -117 -177 -305 -324 -660 962 1162 -597 -155 -405 -144 -9 169 179 166 -92 -170 -59 -168 78 119 -71 9 -110 -10 -75 78 0 102 27 -101 59 -271 82 -96 110 -35 206 76 -92 -169 -289 -442 -272 1417 -136 -534 -104 -194 -117 -59 399 66 -14 -8 -60 -67 -188 14 24 -28 215 -47 -191 -114 99 103 -119'],['VivowatchSE-SNC-0004']
['2021-01-16 14:54:34'],[16.0],['135 -8 -23 -159 151 53 19 17 -79 18 35 92 -62 40 93 40 -64 141 -35 -116 -181 80 175 139 81 45 74 -303 -747 499 1167 -380 -61 -34 -339 116 141 71 144 21 -63 74 28 -72 -203 297 -48 -55 33 21 55 -80 47 -45 51 81 150 -32 -156 -101 -43 157 376 31 12 -152 -179 -407 -235 1233 -101 -248 -253 -362 31 30 353 266 -48 -116 -256 -205 221 101 115 43 65 -147 -147 55 167 -95 45 64 177 -189 16 197 -174 -194 -156 289 209 387 -44 73 -512 -239 -699 416 1648 -241 -396 -220 -139 -123 195 46 371 -110 -140 170 -6 -277 -84 133 245 350 -278 -173 -23 143 55 -68 -184 12 234 -67 8 187 -152 -12 -179 -39 -93 35 302 269 -61 -3 -79 -409 -354 -667 1593 525 -564 -205 -294 -324 51 357 304 -152 60 -32 -79 168 -139 -34 -69 198 -92 107 -18 -71 -39 24 42 -79 105 42 -205 85 -144 142 91 -61 78 -28 3 -148 -146 -95 249 210 33 250 -239 -197 -634 -306 1273 -87 -207 -225 -250 48 -68 82 208 117 -92 -68 -134 -15 93 1 69 -20 106 -218 -86 126 -103 56 188 -74 -47 -112 -142 110 -22 47 80 152 -120 -55 -161 111 -180 -11 310 86 -51 131 -190 -176 -469 -308 1426 -282 -522 -167 3 76 -133 40 210 251 -175 -124 -136 76 4 -42 62 43 152 -259 -133 102 14 -16 30 61 -126 80 0 -75 37 -161 150 87 -197 -137 53 209 92 -26 11 -78 -285 -157 -135 760 489 -457 -347 -88 79 -18 146 123 -26 -14 11 -108 -114 58 -148 26 94 157 97 -84 -91 -424 72 226 52 -139 169 157 -216 -34 -68 70 -162 -49 112 -111 -1 165 179 49 -127 -448 -452 -439 1393 556 -732 -319 -196 -23 -9 124 26 18 255 -88 -142 175 -217 -221 42 255 24 -59 -1 -146 -92 210 -111 -165 -126 207 119 -88 56 -99 26 -29 -143 -58 -85 -67 208 314 77 107 -524 -203 -513 -398 1602 433 -405 -366 -322 40 -183 168 188 118 -15 -181 171 -290 -108 143 61 97 31 0 -105 159 -268 53 -38 2 -135 110 249 -89 -66 -69 -151 29 -111 -169 277 147 286 -215 -232 -169 -314 -450 847 757 -411 -106 -414 -284 136 38 186 -8 -33 64 -5 45 -464 18 105 232 -90 -312 186 121 -147 -274 116 -42 134 60 -109 56 -98 -243 121 36 112 -343 47 167 299 15 -152 -4 -358 -900 452 1480 -261 -374 -472 -41 68 -30 124 61 198 -30 -262 -251 33 58 37 120 170 -322 -148 213 -138 15 -57 174 -157 -24 -12 -97 106 66 -99 -178 100 4 -236 -114 413 192 -120 -27 -289 -98 -607 398 757 -410 -265 -337 -8 0 210 -110 31 1 44 -76 3 7 -233 130 43 141 -174 -174 6 208 -77 -187 21 52 161 -243 -4 72 -50 -137 48 128 -211 -139 349 -29 -93 -126 1 -310 -37 1022 -243 -334 -107 48 -117 -153 153 107 64 -156 -32 -27 18 -77 -55 143 -41 1 -78 -238 156 90 -29 -145 -108 139 185 -82 -181 45 94 -340 -15 210 53 208 46 -230 -249 -776 560 1249 -304 -434 -254 -74 -44 25 114 77 34 23 -167 26 -137 -97 129 -101 114 81 8 -144 65 -118 -141 -90 159 167 12 -32 -40 135 -173 -317 -25 55 46 184 214 -55 102 -165 -574 -599 410 1522 -333 -331 -388 -298 111 73 99 -84 232 -52 -72 -179 -59 -25 0 57 158 -121 -81 0 7 -62 4 -69 -51 144 -59 -19 -60 39 -84 -6 62 5 -206 -191 50 60 352 -25 127 -516 -406 -397 558 1255 -332 -415 -364 -55 -112 67 158 126 -73 -74 143 -277 -47 -113 72 -5 66 156 -99 -41 -127 25 -6 -36 -59 -49 -9 67 102 15 -108 -127 -87 -74 -30 -19 143 320 73 -290 -35 -51 -545 -533 1058 746 -357 -255 -299 -200 -104 175 149 175 -65 -99 -41 18 -156 -162 29 153 69 21 -12 -221 -20 95 -144 113 -109 -2 -22 23 138 -113 -67 -27 -13 -109 -65 80 245 7 -61 -222 -179 -448 337 1010 -187 -410 -97 -380 156 204 -15 161 -12 -152 19 -211 40 -102 -60 302 26 -47 -144 -125 -83 -106 159 55 94 -3 -49 -73 -74 -78 -38 -62 31 132 187 50 -183 -43 -174 -351 -329 1349 348 -474 -336 -396 53 104 249 30 -56 -30 -9 -191 -37 -43 57 101 22 6 -90 -202 92 19 -18 97 -39 -189 -28 270 -54 17 -199 -98 32 -136 83 -100 330 229 -262 64 -343 -249 -530 327 1290 -25 -445 -367 -293 84 305 66 -29 75 -39 53 -65 -284 42 -98 257 105 -108 -67 -21 -42 31 27 -199 -40 175 -7 -83 269 -210 29 -320 -172 141 -89 312 354 -190 -172 -149 -235 -362 -253 1313 -86 -498 -75 -237 -47 -121 250 143 79 -121 -8 -78 -106 -102 19 105 86 -16 -205 117 -60 -181 -21 159 25 -27 100 -107 42 -340 45 -9 -31 318 89 -38 -65 -122 -278 -322 -315 1256 132 -480 -323 -303 92 -31 340 19 -60 -36 70 -154 -223 60 -15 102 122 -61 117 -192 -214 21 74 121 7 -159 -166 191 142 -15 -260 -240 82 23 89 243 11 8 -268 -269 -601 453 1191 -91 -446 -413 -82 -121 191 310 -29 -44 -86 -102 -59 5 14 -13 73 56 12 -51 -250 -30 -10 62 52 107 -6 -104 127 -201 12 -43 -176 -67 71 186 244 71 6 -365 -358 -533 -90 1515 470 -736 -457 -59 -36 -22 39 200 160 -88 -17 -73 -109 -130 127 -120 198 96 -107 -117 -114 93 -132 46 9 110 43 -91 -83 -7 -113 52 -10 -127 343 135 1 -69 -317 -171 -413 487 926 -407 -353 18 -215 -105 77 72 99 150 -144 -9 -184 -232 6 131 320 50 -250 -102 46 -249 82 198 -122 149 -53'],['VivowatchSE-SNC-0004']
['2021-01-18 12:57:25'],[16.0],['70 149 -42 58 -205 162 -32 356 98 21 -90 -172 -358 155 814 -157 -43 -163 88 64 200 -12 4 179 -125 -127 -96 355 148 258 -118 -360 -113 145 53 -123 248 302 181 -237 -141 135 130 -108 -284 180 333 209 5 -69 -2 -376 -381 728 810 -353 -157 -71 -139 103 260 136 3 -90 50 62 -88 -12 220 175 -216 -47 219 99 135 -218 137 80 -109 -22 -32 346 144 64 -277 150 -162 -192 172 -27 109 659 236 -542 -337 -21 369 353 -178 -65 87 243 81 -199 27 -133 -65 147 380 80 -99 -108 209 -163 -49 116 -126 381 -99 -167 97 -15 211 28 -32 -59 -59 -5 453 72 -180 -134 99 268 -98 -49 292 68 -164 -105 -201 243 98 280 138 -147 -261 -287 470 106 -63 170 -128 42 83 -8 -18 -24 -140 270 149 -53 16 -319 -204 642 0 -158 166 -322 -333 402 276 -35 53 -315 21 86 -31 201 312 -106 -150 -67 233 -138 -115 338 5 45 169 -34 -281 -65 3 104 281 185 90 -105 -141 -207 -429 931 468 -411 169 -191 85 -111 76 140 6 143 -174 -133 500 -5 -227 327 -42 -226 -284 153 118 285 311 82 -436 -135 -40 -130 208 84 301 126 190 -129 -394 -261 345 -35 407 623 -582 -22 -35 67 -50 -73 379 118 -152 127 -48 -204 -19 141 202 207 127 -307 -21 209 -130 -4 291 6 45 -78 59 74 -44 182 -346 -248 719 147 -60 18 -408 -286 557 928 -542 -320 -62 -75 135 218 407 1 -242 -90 -214 22 438 299 7 -340 -50 -12 0 125 244 157 -208 76 8 -237 65 277 193 -47 58 2 -267 159 244 177 -95 -139 -279 632 479 -475 -335 -38 416 99 91 -286 -87 135 66 181 133 -91 -15 3 -182 90 245 294 82 -215 -330 118 365 157 56 -53 -38 -12 -248 166 106 221 306 -125 -329 -166 -282 25 996 -259 -122 -140 -125 140 -248 96 503 247 -210 -37 -213 37 126 35 223 -67 154 280 -306 -202 109 135 136 52 58 -33 -122 85 63 -53 104 176 -28 -35 -123 -270 562 717 -582 -319 -164 57 483 282 56 -209 -81 -135 -119 134 469 66 221 -174 -449 140 -83 243 122 103 53 -77 -27 -83 -57 -113 318 -8 299 210 -124 -327 -145 -313 472 724 -95 -108 -326 68 -161 149 152 109 -12 100 -95 103 -99 -134 159 60 20 -24 97 114 115 -15 -17 -64 -246 16 466 137 -52 73 7 -198 -52 29 2 -268 928 267 -669 -17 -158 -57 205 363 23 -50 2 -35 -190 -109 358 258 47 -45 -131 -20 -40 -28 183 49 330 98 -226 -244 8 149 -139 193 200 229 154 -46 -433 -126 -179 460 880 -397 -182 121 -41 197 22 -36 -152 47 331 3 -212 165 200 -241 -70 -61 123 -3 205 94 0 106 -176 -25 -94 214 217 28 -97 -107 -13 -19 331 74 26 63 -161 -410 -29 873 34 -226 -13 -200 118 25 120 49 -28 102 128 -144 -163 181 214 28 -113 -79 -73 174 -4 -18 58 234 151 -278 -190 157 402 27 -201 -68 126 -97 183 206 -79 18 -6 -156 -435 807 305 -396 78 -247 41 343 169 -235 -199 87 395 18 -111 68 128 -262 40 -131 94 294 126 -13 -295 184 -71 -23 223 -48 -5 11 -34 95 60 -320 198 309 -25 132 -342 -24 -315 668 749 -597 -254 -201 401 193 192 -30 -149 48 -32 9 94 105 141 137 -224 -43 -90 109 83 171 -108 -13 245 -35 -181 -159 290 63 184 52 -157 -81 50 211 70 -55 181 -214 -400 678 213 -301 -4 -114 27 204 232 -85 -9 -41 -10 -39 52 119 116 163 -55 -5 -171 -117 24 -14 504 195 -178 -159 -54 -3 51 16 162 77 165 113 -468 218 114 78 -94 -450 -53 941 419 -535 -418 -182 497 274 -12 -86 181 -145 -92 -2 0 51 277 132 -128 -51 -225 102 99 70 -25 104 71 -51 92 -242 93 -123 44 259 104 45 86 -237 -115 -249 418 634 -348 -135 -115 274 -113 3 94 -187 204 -99 211 138 -76 74 -217 24 231 -86 -222 289 184 38 -479 124 453 67 -50 -203 34 -156 114 50 354 142 -32 -89 -361 -467 462 764 -82 -37 -350 -154 56 139 231 -31 -153 130 78 23 -263 242 213 14 -63 -141 2 -134 333 159 -106 159 -83 -223 -87 -8 374 -19 167 -93 -26 202 -84 -5 -240 -152 206 1029 -109 -662 -178 78 346 -4 32 318 -200 -123 -49 -214 248 155 320 -120 -332 76 63 43 -68 -75 399 64 -139 -104 68 261 -67 -196 -123 242 33 213 126 59 -255 -259 -408 524 959 -401 -186 -34 -8 -31 -93 127 180 57 269 -182 -445 131 258 0 49 91 -15 -12 47 1 -162 -33 248 108 127 81 -113 -250 34 -187 174 231 347 304 -466 -118 -234 -113 -61 1322 -53 -630 -62 -163 302 -28 167 -9 -217 -14 129 70 36 77 153 -113 -144 -344 331 256 80 28 42 -102 -249 -23 224 274 36 -136 -176 -72 3 210 257 35 -93 -118 -246 -265 550 579 -456 21 -92 -87 194 -48 26 -243 81 29 425 163 -311 -354 100 134 205 20 -162 -88 152 234 12 136 -350 -143 134 70 48 303 74 60 -152 -287 -80 -14 349 645 -347 -364 216 -263 32 98 272 -138 94 221 -219 -12 -2 31 98 64 -48 72 27 -114 -18 33 132 109 45 9 -118 -329 190 113 246 43 156 -131 -380 -420 396 1034 -571 -70 -204 -91 284 155 64 -252 -108 194 106 -17 -92 178 118 33 -69 -229 -63 118 315 296 -166 -122 -79 -166 83 -46 49 200 378 -121 -123 -332 -229 -373 937 706 -379 -243 -428 186 -84 96 114 133 59 -22 -45 -214 87 130 26 25 82 -134 -57 99 -54 138 144 -98 -133 82 -15 -28 -25 -69 137 275 210 -141 -192 -141 -201 -211 1003 381 -543 60 -129 -26 113 -14 132 184 -37 -105 0 36 -84 215 -19 274 -169 -155 -36 -88 161 210 93 65 -205 -175 148 -110 55 71 -40 349 294 -280 -109 -169 -398 -21 1234 85 -602 120 -233 -62 18 313 99 -51 -12 -256 84 231 68 16 -45 -24 -154 -57 169 226 35 2 -124 -161 59 174 -8 115 -81 -160 8 6 395 220 -244 -318 -114 121 -252 861 300 -336 -229 -422 227 152 325 -154 26 14 -39 17 -8 -1 -26 174 111 63 -254 49 -98 -62 242 -51 92 16 30 2 -108 -8 4 -29 32 204 149 54 -238 -139 56 -403 661 228 -267 148 -161 -253 140 329 32 37 -278 24 33 -151 133 264 42 -12 -231 -158 139 67 210 -42 -80 156 208 -134 -111 -160 -20 293 18 163 232 -137 -95 -270 -67 -282 588 716 -397 -108 -310 -9 214 38 52 90 9 11 -82 56 -24 -120 139 81 -2 4 -78 148 -6 34 35 -142 137 -1 -36 -9 155 55 -28 -123 -13 -203 174 477 85 -157 -430 -409 78 952 -170 -176 -143 -146 2 271 -29 -166 67 -3 32 -69 341 -54 -205 100 -175 -47 196 123 27 -127 -21 103 -68 41 37 -49 20 21 93 -83 -11 -49 221 231 -217 -371 176 -161 46 938 -494 -166 -56 -106 -42 75 201 -79 157 175 -91 -226 -176 39 196 253 39 -13 3 -143 -45 -250 116 284'],['VivowatchSE-SNC-0004']
['2021-01-18 12:58:18'],[16.0],['334 0 0 -74 -58 -357 435 261 -306 -78 142 164 -265 5 195 159 -272 -81 42 75 195 32 74 -285 -56 -331 180 850 -333 -319 -128 110 57 -32 95 111 102 -54 -170 -136 84 67 150 55 67 -30 -268 50 79 209 109 -155 15 -20 -52 61 85 -42 63 91 56 -98 -497 379 237 -190 -20 -249 141 -131 274 163 -68 -46 24 -77 -180 277 112 163 -5 -56 -352 65 320 52 -15 17 -131 178 -73 15 -1 -227 184 388 57 -324 90 -107 -449 214 947 -124 -221 -163 -161 132 76 250 -61 -65 -78 161 11 42 41 -174 -31 43 144 67 67 -213 34 240 -19 9 -4 -57 -60 -2 -39 94 108 212 182 -200 -341 -104 -358 88 471 370 484 -397 -759 -310 311 -25 276 269 48 -72 -205 193 254 -118 -392 -431 152 642 667 240 -521 -563 -373 172 409 249 275 33 -260 -248 -28 253 80 46 -179 -218 -48 830 111 -638 185 -302 70 26 183 125 136 -128 -176 -39 -39 203 81 70 -333 23 219 153 -163 -115 -21 130 89 22 -120 -18 177 -194 -31 316 -57 127 -147 -313 -167 55 868 -315 -203 -129 -170 60 -67 262 256 63 -118 -45 -163 58 -142 161 250 60 -219 66 151 -160 -40 -70 129 103 139 -90 -5 -213 39 78 185 129 73 -187 -45 30 -182 -342 781 672 -650 -63 -218 42 -30 369 -152 86 45 84 77 -446 -121 357 368 -64 -75 -274 139 160 -35 42 128 -196 5 62 125 -73 -71 149 -73 93 132 111 -127 -9 -413 -260 32 1173 577 -441 -669 -625 151 336 488 205 6 -234 -75 -184 -88 115 28 126 159 28 -27 -140 -115 85 202 14 -64 -51 115 10 -101 138 -140 70 -97 -47 369 77 -90 -272 -200 -276 748 636 -432 -301 -91 158 -128 6 122 256 -89 -33 -20 -195 19 105 39 -125 158 134 -75 -153 135 72 -291 87 201 30 45 -29 -79 -85 -5 -33 107 101 144 9 -28 -169 -245 -213 838 262 -534 21 -158 182 26 -31 80 141 -173 -169 187 8 42 12 79 154 -301 5 25 14 131 -20 91 52 -251 -24 -73 207 214 -135 -21 -53 81 -66 28 -54 -182 404 75 -340 64 -148 -116 141 144 252 -41 -187 -126 -49 46 32 213 -124 183 124 -203 -93 -222 219 228 150 -150 -13 -4 -23 54 -209 36 23 382 156 -161 -33 -221 -237 -278 983 491 -634 -61 -111 -48 35 169 121 168 -167 -110 -185 136 232 -280 211 112 137 -122 -162 29 -46 29 166 90 -48 -18 -83 -105 172 83 -161 162 -54 66 102 71 -371 -314 1020 276 -663 57 -2 35 101 -146 141 157 -53 -45 -182 85 58 169 -18 0 -65 -23 141 -149 73 -36 92 135 -50 -87 100 -118 -63 -73 95 30 465 -206 -210 -27 -100 -220 -180 882 -195 -178 21 -104 -265 225 60 -43 211 94 7 -206 -230 116 144 219 97 -238 12 -92 139 109 -60 -18 42 59 -12 51 46 -196 -114 178 126 38 77 35 -69 -110 -260 -277 804 -63 -277 16 -70 2 -66 3 51 232 -9 -76 33 -66 -144 41 290 -92 1 -74 -106 163 -4 90 -121 33 185 -107 68 -39 -228 160 247 72 -97 -38 -29 -433 19 977 -22 -578 -80 129 5 86 -29 16 92 -25 -56 -91 95 22 90 34 -71 6 -90 -82 123 31 76 42 53 -136 -29 -56 -81 150 46 75 96 -14 -72 -102 -453 97 846 -132 -400 -162 32 142 -41 93 111 -36 118 -145 -226 183 208 -72 -38 4 -117 166 -107 46 91 -19 -42 119 -7 -202 16 149 -8 78 130 -66 170 -177 -397 -89 989 196 -519 -34 -245 134 216 36 94 5 -293 133 125 -5 79 -57 56 -72 -53 36 -116 274 18 -86 93 75 10 22 -159 -37 86 58 196 -82 150 92 -420 -97 -125 -127 789 -86 -316 101 -218 -29 -53 139 228 76 12 -186 -54 18 -73 72 224 93 -47 -262 66 94 31 97 -71 -12 196 32 5 -138 -217 153 -95 56 343 154 6 -286 -270 -103 -363 866 607 -354 -219 -271 -51 99 312 -127 149 -3 -154 122 54 -175 -38 65 94 297 -5 -292 -42 145 72 -30 78 27 100 -280 46 211 103 -275 -127 69 57 365 162 -245 -210 -137 -451 783 480 -362 -22 -102 -60 -1 255 -181 10 186 71 -160 -99 -64 69 261 48 -35 -176 -64 105 124 -64 -112 193 13 -133 84 102 -148 -159 9 56 -39 281 389 9 -530 -109 -458 329 1034 -272 -170 -99 -103 86 133 25 -188 64 148 -61 6 -70 187 48 -208 -44 68 -31 -21 2 143 118 -39 -15 -152 16 -68 62 12 -44 165 209 -11 -181 -279 50 -416 270 1045 -345 -447 -87 -40 180 11 -40 118 7 34 -114 -44 -84 133 173 -94 -45 -156 65 160 61 -179 -44 160 201 -161 -239 97 43 -74 20 232 -21 115 -252 -167 -325 184 898 -450 -241 -106 102 83 -115 93 130 -57 10 -155 24 32 -10 39 -34 35 -71 -53 -49 259 37 -82 -89 -24 -23 86 75 -82 -98 33 222 153 3 -255 -235 -358 174 1121 -66 -476 -142 -252 136 227 43 -63 220 -171 -71 16 -63 -29 39'],['VivowatchSE-SNC-0004']
['2021-01-18 12:58:52'],[16.0],['-26 -44 120 47 108 -74 -93 11 -80 80 -35 -107 -16 -146 154 302 -7 -52 -303 -65 -454 202 791 -432 -284 -45 -196 55 211 2 46 -114 -185 75 -86 -4 172 92 -96 19 -118 -49 -25 -172 50 191 204 -174 -104 -96 72 -80 -99 104 16 153 41 3 176 -375 -276 -386 227 1004 -455 -131 -162 -53 140 -83 -31 129 -6 -56 69 -99 114 -20 -79 -85 88 -114 120 127 -80 -34 -127 16 195 -56 -154 90 -78 -125 -28 113 138 210 -21 -131 -114 -507 -435 1041 630 -533 -131 -265 154 -111 66 129 22 -50 -86 136 24 -102 -134 256 31 -100 -46 -76 -20 129 78 -51 27 -36 -12 -65 -82 24 42 -92 122 166 77 -124 -118 -131 -240 -112 780 333 -631 -36 -84 -81 82 -4 66 139 -125 -27 -19 -86 22 173 -49 -67 -114 -7 84 -37 62 55 -47 -2 25 -230 69 104 124 -153 0 131 -54 0 -168 -26 -168 567 -122 -371 -83 0 120 7 64 -86 42 -35 27 -79 -36 68 10 15 82 10 -123 -118 74 24 62 -23 2 116 -3 -197 19 -85 24 74 132 333 -48 -350 -244 -310 236 1085 -261 -422 -105 -86 59 -80 249 -111 76 83 -50 -46 -47 37 12 -87 -32 -62 110 182 -127 -154 41 218 -99 -55 -154 36 174 -155 0 81 95 22 74 -211 -265 -518 701 945 -379 -369 -319 -64 25 249 92 9 167 -227 -188 6 79 158 135 41 -264 -110 112 -10 -49 54 172 -43 -117 -101 68 -26 -12 -65 49 0 81 219 -17 -242 -189 -521 236 1123 -557 -234 -90 55 49 -99 66 -49 126 39 -130 -104 212 -41 -120 53 -210 95 175 -71 -133 -15 -36 66 104 -103 -109 27 -81 -53 178 59 86 -182 -74 -49 -241 -184 975 174 -658 -90 -130 57 58 297 50 -123 -111 135 -194 -101 207 -61 172 -15 -87 -37 -9 -138 49 166 78 -56 22 -134 29 -52 -75 -66 305 338 -240 -183 -184 -207 -100 901 -236 -164 -114 -111 -197 53 86 29 237 -206 33 -68 16 -144 42 150 -120 -13 93 20 10 -62 -129 -90 259 9 -137 -235 34 144 277 -76 0 -139 -311 -320 200 1267 -210 -521 -182 -51 -52 25 223 13 38 -102 122 -103 -170 8 84 40 72 21 -83 -145 -9 103 77 6 -33 26 -152 -41 -29 30 28 385 -28 -162 -147 -254 -461 473 1099 -399 -320 -190 59 72 4 145 4 -68 55 -142 -27 27 107 -34 -60 -9 53 -54 -6 107 -11 71 -103 76 -135 51 -103 -22 -7 85 228 62 -149 -322 -256 -458 1256 96 -542 -76 -184 62 -68 195 78 -20 17 -64 -26 -189 9 262 77 -51 -72 -7 -123 -109 76 272 -67 40 -21 -192 20 -75 -2 -49 145 353 39 -143 -187 -192 -651 730 957 -482 -189 -135 -26 39 -26 180 57 -177 6 -70 10 62 39 -26 -39 -3 -53 -32 55 -23 97 41 8 -135 33 4 -180 50 85 226 9 110 -389 -130 -264 -26 988 -486 -316 -63 -89 39 142 205 -53 -69 -147 -74 45 120 44 24 -48 -31 -34 -154 55 123 71 -79 73 17 -191 29 37 -74 53 147 212 -118 -272 -200 -189 998 155 -547 -88 -151 198 -37 -74 175 63 14 -96 -182 -36 39 180 90 -59 -126 -95 26 174 69 -194 -29 138 57 -38 -181 -66 191 265 62 -47 -286 -372 -219 972 413 -565 -38 -240 -32 80 125 50 -23 18 14 -28 -166 44 190 -81 25 -139 -27 41 97 -18 32 -8 -10 56 -159 -144 17 95 226 314 -53 -324 -260 -89 -327 864 613 -620 -83 -199 66 73 90 97 -74 -95 -5 -56 -66 237 114 -208 -20 -24 -57 19 13 31 56 21 5 45 -22 -228 -21 53 -125 169 275 75 24 -182 -286 -492 40 1225 80 -535 -186 27 -90 -25 169 68 78 -154 60 18 -98 -1 99 14 -15 -147 -62 134 126 -115 129 -93 -44 30 -12 -12 -75 124 -93 -145 228 124 -50 -139 -117 -327 -330 1196 -122 -488 -92 -132 59 10 178 14 88 -57 -122 33 -23 -82 45 65 146 -75 -75 -121 59 0 -20 151 -23 -30 -5 -118 -102'],['VivowatchSE-SNC-0004']
['2021-01-18 12:59:39'],[16.0],['10 16 -107 87 -257 -168 -301 555 736 -453 -141 -171 52 -10 153 -38 189 -28 -71 -51 -186 127 26 59 104 -14 -29 -58 -209 -5 176 69 279 63 -393 163 -128 187 19 -176 98 -107 64 164 65 64 -107 -379 -358 134 840 24 -205 -54 -21 -106 -76 93 54 61 -11 142 -30 -61 -175 -37 139 87 202 -4 -176 -135 -139 14 252 272 97 -72 -206 -359 -174 21 140 453 566 16 -495 -476 -246 -111 149 1211 409 -766 -313 -105 167 46 54 21 106 284 17 -198 -442 -206 432 270 17 104 -116 -274 -139 -10 152 194 109 22 -16 23 -88 -202 -72 -7 86 202 41 227 58 -193 -200 -218 -330 166 1164 -127 -246 -253 -198 332 97 -51 -43 175 -1 15 -42 -202 84 131 147 74 -200 19 -92 60 -52 75 138 -116 47 4 180 -76 -37 -196 14 183 39 7 228 41 -23 -131 -248 -212 -6 986 -309 -382 -25 28 -18 -2 173 -3 -66 -139 97 57 54 -89 150 -36 -61 6 -80 54 129 173 -134 11 -71 31 -54 55 165 -114 60 55 -177 116 99 141 -86 -129 -328 50 764 -222 -35 -98 -70 172 133 33 -167 -16 89 129 -51 -37 95 -26 13 -19 -46 11 108 75 -109 -63 179 2 1 56 -45 88 -175 -35 86 183 160 -36 -67 -127 -480 19 1076 178 -478 -267 -109 100 210 259 -20 -131 -65 72 -82 2 146 182 -117 -79 35 0 18 -29 -24 133 100 -37 76 -55 -59 81 -12 -41 66 38 -91 119 194 -34 214 -230 -277 -410 454 1092 -391 -349 -100 80 27 -141 85 138 60 42 -108 -59 116 11 53 -27 -166 60 147 49 -23 -168 201 73 -25 -162 -6 180 118 25 -109 44 -83 3 45 137 -82 299 -157 -234 -524 226 1045 -259 -173 -139 35 -55 111 142 -56 76 90 3 -95 -68 -148 124 364 90 -184 -82 -67 -12 129 26 9 -13 88 15 -10 76 -121 -70 -15 69 16 84 246 -21 -80 -158 -139 -449 597 759 -430 -158 -162 -7 -22 214 90 -71 -73 106 -10 -52 -106 70 16 244 124 -257 -52 128 8 -235 249 27 159 -111 -1 -65 -37 198 -130 -56 -108 379 69 -11 -105 -128 69 -192 -198 480 197 -359 44 -33 -174 50 -13 150 160 39 -168 -64 43 23 -119 146 112 -59 81 -215 -33 13 155 78 26 -169 -14 20 149 -30 10 37 -97 63 79 39 -38 96 -39 -12 -337 256 283 -284 -184 13 119 4 202 -9 -319 -62 329 -42 -65 187 30 -142 73 135 -210 -31 73 93 40 5 -26 95 59 -126 -27 -115 -30 178 190 130 47 -88 -223 -28 -439 350 884 -261 -159 -275 111 83 -36 133 17 68 -223 80 90 2 20 29 -56 58 -214 106 74 -60 -61 27 263 -184 36 -144 138 -13 -47 -49 118 242 83 45 -307 -231 -384 614 850 -378 -280 -145 -63 123 144 -20 59 96 -134 43 -19 -32 76 60 -30 -11 -51 25 43 143 -186 53 29 8 168 -222 46 45 -34 -32 250 90 -37 -135 -93 -368 -10 1103 -402 -369 -129 29 69 78 41 94 -44 -124 13 -8 51 14 62 -127 110 -28 35 36 -109 -9 115 38 53 56 -91 -51 -188 -90 252 206 81 171 -159 -512 -386 313 1094 -86 -355 -133 -168 81 -50 176 209 -88 51 -55 -23 4 -238 155 235 -148 -103 -27 -81 207 -11 -89 -3 67 70 -27 -179 43 27 -50 327 130 -82 -246 -76 -377 32 1085 -415 -206 -119 -256 189 109 106 16 -77 -28 32 -50 -10 123 -17 -4 80 -113 74 -80 59 -48 18 86 14 200 -100 -195 -99 70 -31 313 96 104 -161 -210 -535 210 1034 -220 -200 -193 -124 158 151 197 -143 -174 141 -39 -16 10 -45 239 -169 16 -15 -92 87 -110 205 0 -22 29 55 -134 -61 -76 -21 295 235 -45 -25 -195 -207 -495 441 913 -419 -143 -174 22 -29 167 -116 15 33 51 67 -43 -121 4 197 -70 11 -112 -20 80 129 22 -12 48 -134 -36 67 -138 30 196 -56 131 98 -240 -96 -357 504 626 -479 -197 -2 -58 110 60 100 17 -71 -90 -39 91 -135 180 214 -63 -89 -217 77 -50 17 326 -51 -155 -41 50 -113 -30 -153 455 174 71 -155 -382 -247 -291 1091 199 -459 -21 -141 -137 169 20 3 101 -34 103 -25 -5 -169 36 0 71 -35 60 84 -130 9 38 13 36 -8 -13 -134 -161 229 275 73 -47 -201 -102 -507 53 1092 118 -405 -275 25 19 -3 79 115 109 -78 -79 -136 72 141 -100 -56 -36 32 31 19 -36 70 103 -67 105 -251 -147 76 74 117 145 46 138 -274 -234 -373 -214 1194 -51 -481 -96 -101 -46 33 179 80 -67 -27 38 -71 40 33 26 84 -42 -202 48 47 90 205 -40 -150 141 50 -299 -10 132 -57 75 247 73 -45 -71 -276 -450 41 1155 105 -461 -335 0 215 -69 161 -103 45 103 103 -132 -185 50 96 86 -8 -209 81 13 86 -32 -27 84 18 27 -125 -213 70 146 231 94 -140 -66 -125 -262 3 769 -316 -148 11 -63 -9 -42 99 50 -19 -20 46 21 -137 78 112 -57 -89 91 9 -118 -27 68 134 64 -141 -67 -96 -25 208 143 49 -185 -113 -19 -177 -70 724 -315 -187 -23 -200 121 119 80 -121 79 -83 26 9 -29 -65 74 88 -96 -35 20 115 67 -3 -212 96 14 57 -49 -53 -69 255 250 -113 -237 -136 -253 84 1214 -208 -495 -180 -62 96 68 94 -124 125 92 -138 39 -107 -57 256 -12 -96 -15 51 103 -41 -89 124 -68 2 -38 -60 -8 22 186 212 5 -232 -238 -364 201 1005 -22 -493 -157 -2 15 12 80 120 77 -108 22 -78 -27 169 -97 82 33 -55 -71 -60 162 76 90 -57 -213 22 -38 -139 302 182 278 -133 -275'],['VivowatchSE-SNC-0004']
['2021-01-18 13:00:40'],[16.0],['-36 -11 -3 177 -114 -26 0 27 -126 56 180 -303 217 -38 -197 30 118 -14 66 -41 -26 72 -84 -24 59 109 -112 143 -167 -3 -18 116 98 -141 99 -41 -48 -159 35 102 271 -70 -165 -68 -36 68 -312 117 867 -248 -514 116 -182 137 95 116 98 -149 -33 56 -34 8 37 4 18 129 -180 -95 228 -10 -70 121 30 -167 -16 178 24 -153 -238 80 358 41 -6 -211 9 -544 343 726 -466 72 28 -98 -244 328 -78 -31 41 -32 -23 -18 -78 178 70 0 6 -72 -264 101 307 -119 109 35 -194 -12 64 -112 220 48 106 -108 -405 -248 616 481 -187 -428 -291 155 179 258 -145 4 83 -63 -107 -77 26 103 8 278 -121 -138 33 -114 -22 9 140 138 -82 -132 -140 135 242 20 -14 -349 -208 -109 798 431 -606 -88 -206 249 139 21 -42 111 -37 -80 -74 -35 93 129 -29 -93 4 -74 161 -39 79 -87 -142 66 -15 73 86 -128 182 136 -208 -100 -197 -301 717 566 -462 -88 -194 -14 -51 167 147 42 -62 -251 98 103 21 -123 -33 52 15 105 15 13 -32 -120 -98 171 26 19 -154 -9 213 41 89 -300 -264 -189 640 465 -436 -121 -117 188 -91 65 194 -62 -135 -184 62 63 115 100 64 -157 -182 52 43 0 61 154 -10 -13 -283 -80 244 291 2 -147 -11 -213 -299 80 870 69 -397 -23 -81 -130 135 207 -50 104 92 16 -288 -24 -36 97 116 120 -72 -20 -147 -33 140 6 186 -150 14 -104 -82 80 242 166 -39 -320 -40 -390 188 819 -252 -185 -181 115 -214 138 80 14 -57 37 111 -114 -18 -313 136 290 129 -140 -32 25 -9 50 -62 -63 -36 158 86 35 136 107 -422 -47 -269 -51 1030 147 -423 -106 -141 0 155 -47 155 161 -13 -76 -156 -127 153 144 52 -76 -110 33 103 -15 -126 41 134 0 -13 -114 -63 212 -19 167 -139 -131 30 14 -258 293 192 -270 17 -110 33 -155 251 29 -1 84 -141 -54 85 83 -83 153 -34 -148 -53 17 249 73 -107 1 12 -137 -7 -39 132 81 -111 320 -21 69 -144 -308 -286 326 940 -360 -171 -152 -149 146 180 129 -112 151 -168 -79 48 3 38 66 25 29 -35 -85 -41 -24 77 132 188 -152 -136 32 -60 -53 27 183 132 95 -82 -258 -117 -143 75 743 -205 -301 -127 -137 121 73 208 146 -206 -131 -35 -70 148 22 243 -8 -247 -75 102 7 -52 35 53 184 -22 2 -226 -82 24 -31 190 249 61 -110 -146 -88 -522 444 805 -313 -148 -18 -131 -51 70 90 164 -8 -54 -36 -31 -7 20 68 95 -48 -76 81 -140 49 -23 66 2 26 58 69 -54 -299 -3 -67 254 287 -114 16 -65 -137 -459 361 361 -357 19 -97 -21 -27 54 131 95 -28 -192 55 -88 -125 247 200 -107 -79 -51 -150 62 134 57 133 -190 -65 2 72 6 -67 14 217 -6 -83 -49 33 -403 -14 919 -192 -398 -123 162 -31 129 -20 -35 67 -30 -63 -65 168 11 -22 27 41 -95 61 -74 -87 90 147 -38 10 1 14 -5 -97 -206 108 62 225 22 32 -141 -145 -363 -116 848 -210 -244 -124 118 -48 11 66 72 111 -145 -112 43 90 -20 85 139 -64 -201 -84 160 55 -14 112 -56 -36 189 -48 -223 -225 168 163 195 144 -123 -96 -110 -201 -283 707 419 -459 31 -166 -108 214 245 -23 -201 127 -95 12 93 65 62 -101 -24 -79 -10 67 43 -66 66 124 97 -162 -114 38 50 96 -2 110 48 -69 -18 -92 -111 -180 75 1064 15 -652 -138 -143 153 -7 90 209 148 37 -159 -169 -182 106 213 5 87 -3 65 -82 56 -210 48 74 123 133 -72 112 7 -180 -165 84 -36 140 176 180 5 -125 -644 137 426 -52 -72 -120 17 14 188 17 78 -4 -158 -274 104 166 194 169 118 -18 -57 -151 -517 -98 570 605 -67 -308 -250 49 205 -121 -124 224 261 142 110 -429 -135 -132 758 466 -636 -200 78 139 -24 137 80 -43 32 80 -55 50 -65 25 -7 145 90 -17 -74 -40 132 32 129 -151 -89 105 59 4 -16 284 17 -12 -174 -112 -152 61 948 -151 -265 17 -19 99 64 -8 151 48 -25 72 -48 103 -32 3 -29 44 31 79 172 109 -136 -140 105 -21 35 91 133 134 -1 16 -64 45 -66 134 -316 304 368 -326 -41 -131 129 -49 126 106 117 -4 30 -99 148 76 -5 37 -28 3 77 107 91 27 -68 115 -4 115 -160 1 74 35 205 111 48 -62 -78 29 -382 -105 1009 240 -371 -123 -120 173 88 -98 131 169 -14 95 -33 82 93 -96 13 109 0 75 -25 108 135 106 -94 -61 100 -208 65 265 185 120 22 -13 -97 -67 -272 -128 998 239 -321 -86 -114 102 117 90 101 23 -64 113 110 28 -175 226 47 104 63 -94 22 29 138 49 66 36 32 17 -158 86 145 179'],['VivowatchSE-SNC-0004']
['2021-01-20 13:05:15'],[16.0],['-77 -534 -164 -326 453 131 296 -498 -280 -411 362 440 273 -497 370 212 -1154 -615 496 1462 1074 -998 -263 -1649 -1367 1002 3452 3149 -4646 -2634 117 1747 1590 310 -291 -558 -779 -645 -46 908 846 343 -991 -1217 -255 -56 1091 166 118 -39 -87 -341 -64 -243 -330 -968 223 2309 316 -599 -1404 -616 -252 260 456 252 169 -95 269 -348 -320 -258 -20 225 81 169 114 -45 -199 -385 -16 240 -83 -51 2 245 81 -203 -91 -196 -384 -124 1066 111 -173 -144 -394 -69 69 190 58 171 -225 -61 33 48 -140 -69 -229 -314 -100 774 435 71 65 -280 -622 -572 -717 -408 368 985 1429 1332 312 -605 -1806 -2554 -1477 -1002 165 2577 3536 4430 2539 -565 -5171 -7263 -6262 -3596 2273 8666 13602 8963 -2116 -9117 -14542 -25459 5532 18079 15124 12919 10378 -3308 -26911 -13067 -2386 7545 10722 9660 4408 -517 -4844 -6800 -5440 -2052 992 2476 3260 2811 1592 -244 -1333 -1799 -1797 -1353 -145 756 1459 1130 616 -378 -679 -844 -182 -181 -52 360 293 164 106 -33 -343 -214 -83 215 227 -1 -42 -87 -544 -240 728 -370 -2 -84 -87 -9 80 176 48 -18 -366 -167 -11 204 192 104 -31 -167 -201 7 -86 81 104 232 -172 -166 -199 -18 111 -50 265 -80 -13 -260 -337 -388 1104 180 -486 -185 -333 11 109 269 62 -12 -89 -176 -180 -53 152 232 94 182 -430 -138 -120 -136 185 94 469 -115 -330 -236 -93 -95 154 348 9 17 -134 -468 -35 1155 86 -762 -408 -376 492 498 252 -23 -344 -178 -473 -205 650 259 -104 74 -59 -268 -155 -5 -42 156 197 -52 -277 -76 206 -228 -8 239 169 -39 7 -150 -369 -440 484 1017 -392 -105 -258 -212 -142 -285 365 463 -10 -307 -115 -53 -45 162 -56 -138 73 -97 -247 221 311 -6 -276 -233 -55 37 -99 -42 236 207 42 -52 -149 -254 -330 -295 816 462 -325 -67 -292 -13 13 -10 191 -132 -86 6 5 24 -31 20 153 -346 -108 111 95 71 -33 64 -144 171 -302 -267 31 369 -120 360 -183 -260 2 -156 -609 415 347 -496 441 66 -359 -531 320 53 52 28 2 109 -67 -220 13 114 -230 -55 322 -8 -324 28 89 43 -46 -18 -228 73 30 55 50 -56 45 -203 -323 -468 1225 -33 -493 -166 -215 102 118 -30 -15 96 -72 60 -221 -147 148 201 -112 -81 16 2 -167 -56 125 -10 183 -17 -192 -147 -56 -4 -49 435 179 -40 -448 -228 -432 607 935 -572 -257 -283 158 44 -27 121 184 -88 -178 -43 -61 159 -78 223 -125 -124 -30 -180 24 -4 180 43 54 163 -269 -306 -397 278 451 421 90 -280 -393 -270 -558 432 1256 -427 37 -235 -306 52 87 -16 41 140 -24 -53 -82 -8 93 -80 -156 1 47 -15 -7 128 -53 79 1 -181 -83 -129 101 22 84 218 26 -241 -270 8 -401 292 558 -414 -106 -106 -211 71 67 66 -8 -13 72 -252 53 173 -162 62 92 44 -236 -49 65 -160 169 233 -285 84 114 -218 -143 85 -117 19 379 18 -131 -290 -118 -556 860 544 -506 -121 -215 89 -37 83 -10 134 -98 -19 -7 142 -324 -130 117 84 83 -75 18 -212 -20 151 69 -41 46 -109 -35 -248 -2 123 340 146 -203 -92 -338 -556 506 881 -448 -100 -218 54 47 -71 -115 23 119 82 125 -210 -48 -101 49 79 -4 -46 -50 102 -48 79 49 -209 5 -14 -7 -81 8 166 177 101 -446 -173 -353 11 877 -269 -297 -87 10 -100 -102 157 141 16 36 -51 -229 15 86 106 57 -126 -191 120 138 -67 123 -15 -257 69 37 125 -56 -226 165 200 -57 171 -315 -286 -511 810 878 -522 -275 -373 111 194 7 -189 207 69 -33 -67 -10 -61 -133 95 25 -113 98 -127 0 202 -47 -12 -239 -54 65 -60 140 76 -53 133 102 -315 -284 -338 350 1071 -225 -417 -291 -32 -9 60 186 -41 117 29 -210 -48 -70 -80 175 -117 16 -104 115 68 -13 -211 99 -145 -14 79 -69 124 35 42 241 -245 -259 -308 -89 1282 -66 -530 -225 -94 108 107 110 -109 -25 71 -74 -59 115 54 -180 -211 151 -25 176 62 -114 10 -88 -78 -3 -6 107 -160 11 257 189 -130 -427 46 -621 635 1111 -384 -386 -190 -76 -113 110 249 9 73 55 -159 -232 -106 29 55 245 -80 -60 -95 43 123 -123 47 -138 15 3 -199 107 20 95 20 226 -372 -307 -363 32 1113 -187 -252 -506 -38 49 -28 217 60 20 -114 -167 -54 62 42 17 -39 -90 -98 96 75 161 -223 -80 -150 0 111 319 -88 -157 -33 -42 62 -55 78 -305 205 155 -178 -178 -17 197 -39 -240 66 178 -83 44 -58 42 29 -44 -71 93 -177 -200 246 235 135 122 -305 -260 171 -161 72 295 -185 130 193 63 -64 -352 -464 -218 1414 231 -434 -209 -278 -70 -15 232 104 154 -276 -75 -13 133 154 118 -136 -302 0 93 8 187 -1 160 -215 -149 51 -86 -107 -20 167 321 43 -141 -149 -164 -548 263 1135 -504 -261 -255 122 66 127 47 -207 -207 -4 313 -172 146 -60 -60 39 -114 -120 118 138 -245 -70 217 -92 192 101 -462 -194 137 -29 280 448 -223 -369 -288 -164 -217 990 -239 -506 132 -152 117 -18 -154 -110 156 51 124 -57 -22 -201 0 93 30 35 -334 108 100 216 113 -218 -81 -10 -197 -27 18 71 224 52 -68 95 -284 -378 -592 906 901 -437 -163 -246 -231 -63 66 225 289 -252 -18 -21 -120 -76 119 -8 46 -157 33 -7 -102 -87 66 208 -29 118 -232 -312 -191 153 460 183 -109 -107 -392 -193 -366 844 639 -590 -172 -226 -49 153 302 -155 -68 43 -41 -143 41 -68 126 197 -243 -64 -29 -123 1 189 124 -104 -129 -133 -82 192 -89 135 152 -137 -187 -75 -332 2 1225 -364 -551 89 24 207 154 -108 -51 177 -342 -122 75 -6 241 150 -153 -316 -135 -20 98 242 -79 10 64 -243 -170 53 28 84 300 -17 -263 -86 -504 -35 1150 1 -616 -123 185 81 -35 21 -168 112 56 -55 -38 21 -123 47 -137 -5 149 -14'],['VivowatchSE-SNC-0004']
['2021-01-20 13:06:05'],[16.0],['1208 -174 30 -488 -459 455 104 -37 427 -176 -706 323 71 -40 644 -311 -595 393 38 23 367 -488 -457 613 255 -119 354 -561 -554 315 324 175 588 -378 -651 213 -457 237 1271 -440 -662 422 -157 112 467 -353 -616 341 257 235 311 -436 -551 327 149 51 460 -523 -449 408 278 167 224 -196 -815 286 74 94 617 -278 -376 457 -190 -11 94 -566 195 309 16 32 434 -504 -590 452 104 214 545 -643 -238 372 -68 107 230 -356 -175 313 -114 69 404 -324 -307 241 -18 103 301 -237 -428 178 52 348 303 -395 -253 24 -213 -336 1169 182 -776 147 -37 135 291 -263 -298 251 44 111 271 -233 -393 368 -16 133 88 -261 -365 324 195 196 92 -337 -499 218 511 -174 133 -213 -248 7 307 193 159 -148 -460 -127 -356 944 764 -642 -456 -173 239 23 304 84 -232 -44 63 -181 -113 241 -16 -71 58 -82 6 144 -321 -99 91 96 78 313 -402 -91 134 -298 21 151 -109 124 241 -125 -27 37 -426 -505 360 1041 -127 -239 -626 -174 487 -113 184 291 -354 -156 34 -185 106 212 -52 195 -165 -278 31 76 -79 -93 260 -270 164 234 -223 -160 139 -198 -253 413 -112 167 25 5 -264 64 -268 -560 533 682 -254 -96 -268 -154 67 -65 -21 390 -60 -74 -244 -217 -102 409 55 -42 -179 -277 -34 241 -26 -329 203 -8 33 116 -33 -354 -89 -163 61 286 424 -132 -292 -423 -191 -144 676 562 -440 -269 -331 126 234 -104 -92 101 -445 256 237 -304 -124 -105 -147 323 196 -289 -222 -129 -210 372 246 -248 -92 -108 -339 145 372 -313 -174 -228 52 391 398 -699 -98 -653 -235 1408 -182 -523 -141 -38 -394 382 380 -401 -188 -159 -429 452 636 -552 -181 -255 -504 524 469 -473 -215 61 -584 579 478 -704 -120 -211 -708 531 730 -236 -66 -257 -905 446 -42 -8 841 -623 -803 479 499 -613 -31 -181 -535 619 623 -603 -281 -366 -466 849 446 -654 -123 -177 -634 583 419 -521 216 -157 -687 496 237 -509 -155 134 -103 387 221 -317 -383 -766 -42 1410 -40 -567 -283 -282 -365 662 289 -280 -202 -137 -473 345 315 -226 86 -393 -244 170 300 -280 78 -147 -96 160 205 -368 -4 -343 -168 335 774 -242 -394 -427 -438 -11 807 918 -691 -269 -586 33 397 -128 -17 87 -347 145 378 -272 -344 -81 -290 244 598 -180 -400 -214 -313 178 686 -433 -77 -282 -446 97 774 -205 -41 22 -763 27 267 -508 867 309 -1120 -56 618 -384 -224 207 -370 224 411 -362 -310 110 -393 137 703 -370 -490 31 -383 196 681 -388 -186 -38 -577 139 453 -363 213 68 -357 -61 374 -1017 78 1191 -431 -224 74 -317 -96 227 -168 42 354 -372 -6 -126 -272 251 346 -222 -286 133 -324 105 141 148 -62 -4 -101 -259 -117 27 172 288 215 -118 -270 -207 -461 -219 1323 75 -403 -38 -13 -142 132 -111 -54 167 108 -28 158 -230 40 -246 118 156 -159 294 -396 167 47 -42 6 236 -403 -100 188 -193 115 228 -177 91 178 -221 -243 -196 -113 1097 -14 -645 101 -185 192 -93 -41 194 -240 -19 180 83 -236 -55 26 -51 41 -57 6 19 -65 6 39 -55 76 -147 115 -225 0 1 136 92 207 28 -377 -119 97 -257 121 825 -583 -87 -8 -45 313 -365 -153 446 -22 214 259 -557 -312 432 62 138 438 -592 -239 348 -64 240 524 -590 -248 448 -73 -1 449 -840 159 609 192 208 -94 -829 -627 612 1168 299 -76 -908 -458 510 169 540 310 -618 -387 493 -94 317 413 -714 -228 538 47 181 178 -545 -162 320 27 254 403 -626 -124 -47 92 287 437 -297 -226 187 -78 -127 87 416 -415 39 -25 161 257 -316 -245 363 -93 351 15 -386 -213 259 253 -24 231 -418 -155 54 202 108 178 -59 -253 80 37 -195 255 -189 27 386 72 -54 -7 -277 -882 1264 713 -561 135 -341 -530 381 315 192 465 -306 -771 241 306 -13 613 -143 -636 238 123 23 611 -403 -637 504 386 13 654 -651 -641 308 179 377 752 -326 -629 364 -316 -430 1164 425 -1077 531 -96 171 486 -449 -681 806 153 73 402 -512 -694 760 214 13 638 -676 -665 469 407 -3 769 -652 -315 247 28 126 237 -225 -112 388 30 -37 118 -732 22 1246 -324 21 77 -358 -366 405 26 219 243 -356 -249 -33 396 -1 231 -159 -477 34 321 79 286 -129 -212 -47 216 -102 9 34 -244 82 184 304 25 114 -531 -288 -191 -51 1056 534 -708 -160 -299 6 196 366 -279 -49 156 -234 -13 281 -177 -126 210 -317 59 210 -224 -4 376 -229 9 237 -316 -201 192 -36 -211 490 7 148 -262 -294 -192 65 -183 890 189 -460 -284 55 41 -187 -29 -84 109 317 83 -287 -136 -361 -26 434 249 -323 -162 -214 -95 386 152 -216 31 -255 -323 382 178 -240 -202 -37 46 533 10 -568 -346 -359 -14 1425 -218 -533 -392 -219 -212 342 613 -447 -13 -389 -400 437 514 -551 -43 -95 -480 473 386 -510 -72 -144 -436 660 406 -538 -318 -32 -688 622 425 -397 193 -293 -604 417 16 -854 1098 117 -1140 528 290 -596 112 -160 -556 718 368 -618 -125 -250 -489 766 539 -578 -197 -492 -590 837 505 -362 -214 -125 -524 480 207 -281 -125 -203 -365 380 691 -242 -311 -373 -627 -174 1337 183 -499 -366 -531 272 444 -291 12 -110 -310 224 316 -204 -171 -98 -225 299 321 -169 -423 -57 -277 304 509 -173 -273 -238 -379 133 639 -348 -295 -3 -133 296 415 -387 -324 -586 -270 977 540 -622 -328 -126 -575 287 825 -440 -330 56 -507 103 859 -371 -364 -5 -640 202 848 -328 -390 26 -508 96 824 -482 -235 0 -464 154 542 -282 -26 53 -494 76 487 -796 -149 1021 -338 -319 241 -444 74 140 -348 168 467 -292 -205 -98 -313 98 523 -154 -269 87 -190 36 -9 48 68 10 -17 -201 124 101 -162 -130 34 38 190 75 -9 -312 54 -755 689 874 -358 -193 -41 -254 -215 408 85 123 280 -354 -352 234 108 175 315 -379 -356 483 -57 33 425 -482 -251 515 45 145 265 -658 -321 328 177 384 663 -757 -250 99 -405 -7 1438 -259 -581 375 -272 289 399 -512 -352 442 200 320 277 -730 -259 550 -107 412 367 -818 -231 608 -15 343 376 -738 -191 409 -85 182 165 -443 36 661 -76 -46 80 -958 -209 1239 641 -425 45 -734 -17 248 85 422 306 -538 -184 219 -89 350 108 -201 -252 227 -77 201 123 -254 -218 158 217 -3 246 -279 -310 236 -45 4 487 -29 -220 -99 -57 -265 94 515 -100 -229 18 -240 261 -59 -215 250 273 -134 138 -114 -438 274 127 270 295 -143 -795 291 107 312 623 -353 -716 342 230 -23 427 -349 -516 664 264 -76 487 -540 -1124 456 1490 -152 192 -560 -680 517 226 317 408 -330 -673 525 75 67 456 -352 -517 587 -16 128 571 -627 -614 662 269 218 552 -668'],['VivowatchSE-SNC-0004']
['2021-01-20 13:09:54'],[16.0],['-87 131 169 163 7 19 30 -226 -101 58 -155 214 157 196 228 267 -70 -400 -519 -507 -296 1008 660 83 263 -275 -194 -651 -591 -616 144 1023 2247 1684 -2110 -1882 -881 36 694 910 817 501 -263 -573 -661 -504 142 243 387 175 391 185 -75 -389 -360 -361 -129 1301 -224 -247 31 -241 61 -211 276 32 162 150 -37 -82 -156 -222 246 371 -31 -12 -153 182 -160 -58 280 35 -102 -23 -117 198 28 85 82 20 -212 -93 -257 -38 930 -344 -200 -294 119 139 71 -72 51 189 -190 78 -7 130 67 -98 -217 127 -72 -102 277 191 94 -195 -93 -89 -76 231 132 42 -150 98 279 -109 -138 120 -657 151 963 -298 -325 158 201 213 -284 -218 -407 58 452 52 -95 246 296 -557 79 84 -282 -253 205 307 373 57 -95 80 -328 -504 41 59 142 139 505 620 -173 -706 -624 -455 -146 1459 -26 0 -137 -435 25 -95 -21 0 175 124 106 -13 -19 -99 -147 128 32 72 -53 -33 -85 -78 283 -140 234 -53 -160 90 -99 -138 36 48 378 120 -30 -298 -339 -466 730 1122 -609 -358 -170 -40 11 166 123 -34 87 -138 4 -12 -90 -60 98 52 128 13 -105 -75 0 -53 25 117 -30 168 -49 -63 -230 -17 143 -166 271 215 122 -276 -274 -378 276 1015 -248 -452 92 -96 5 18 25 201 -25 -49 -63 -81 119 -51 -85 229 -60 -56 -51 -100 21 78 126 12 -72 -109 32 0 -37 -60 29 309 61 2 -402 -107 -308 178 1308 85 -212 -164 -454 -350 -438 -183 307 647 898 607 582 -348 -1068 -1868 -1101 -1184 1007 1024 3283 1999 2186 -1337 -2194 -5627 -3862 -3123 4674 4978 6979 7870 5395 -4585 -13989 -24543 -32000 32000 26651 -11789 -7103 -15658 -2642 -8150 -8305 11870 14004 5359 3149 -4077 -4213 -5886 -2274 -1466 2086 2741 3253 1217 413 -1248 -1573 -1532 -680 -198 517 940 812 511 -18 -447 -281 -253 -109 89 -109 146 -9 -507 507 1040 -514 -203 -380 87 119 98 -81 91 -119 -26 205 -109 35 -75 -47 49 0 41 33 -231 34 11 61 119 -56 8 -76 -124 -100 32 94 329 1 -126 -48 -319 -298 -188 1326 271 -780 -88 -302 -54 81 236 213 168 -59 -150 -216 -173 -181 -24 320 514 147 -245 -271 -377 -184 219 353 268 -8 -68 -122 -136 -38 -152 -88 128 265 222 -59 -157 -300 -179 -231 1012 342 -787 -148 -24 202 0 48 -36 -50 32 -68 -32 62 -19 -14 34 28 -76 65 -141 -28 -16 173 -57 -83 164 -15 -71 -142 84 -69 1 255 92 -136 -34 -157 -68 -201 567 -31 -413 94 -125 -74 42 142 16 24 3 -73 -193 22 147 106 -18 -15 -41 -82 -34 40 45 64 67 -92 22 -75 -108 -47 54 213 166 -73 -175 -156 -191 -212 925 378 -593 -201 -92 68 37 108 -59 68 50 -73 -90 -4 41 94 51 -154 -127 95 42 174 -26 -122 -12 91 43 -26 -176 -45 225 126 70 0 44 -289 -241 -439 1032 442 -624 -2 -155 27 -37 135 -5 76 -38 -84 1 117 -153 96 173 -115 -43 -121 79 -72 -14 130 156 8 -176 -68 -134 -32 115 44 270 41 -140 -268 -126 -141 -264 1089 -201 -432 -47 -122 4 93 147 94 19 -206 -89 9 80 -124 136 239 124 -69 -325 -301 -150 -91 645 365 -49 -132 -391 -482 -291 245 513 375 230 -55 -356 -337 -319 -333 185 1458 101 -521 -219 -194 26 -75 225 150 153 -168 -83 -77 -71 -41 155 155 -60 -105 -71 79 69 -90 -57 78 19 -76 -20 159 6 -110 -122 46 150 166 -188 -95 -94 -101 -312 1007 565 -733 -363 -538 205 285 431 459 269 -777 -449 -84 117 228 157 248 12 -175 -94 -88 -126 -111 1 316 123 41 -1 -69 -161 -179 -79 147 24 366 25 35 -430 -217 -341 523 1109 -521 -239 -270 -108 50 102 72 193 -11 -131 -77 -50 -97 -70 295 46 -10 -72 61 -184 -69 -7 112 141 -65 13 88 -73 -90 -52 -68 66 50 -34 268 0 -36 -72 -361 -262 60 1210 -69 -603 -106 -169 138 -2 79 61 70 -67 40 -144 -206 35 209 137 -38 -118 -11 -92 -32 43 -67 102 100 14 68 -125 -69 -115 -30 80 58 -60 300 64 -123 -181 -186 -400 233 1332 -345 -553 -130 -43 49 38 155 -94 63 -76 -36 -50 31 114 -22 -22 44 -192 -54 111 12 -44 101 -5 -95 21 -88 133 -68 22 -199 -153 164 214 135 20 -300 -327 -275 14 1027 -375 -376 -68 -164 35 169 107 -73 -62 -11 27 -87 -1 20 -80 77 183 -92 -108 -106 -11 47 -64 121 36 33 57 -89 -116 -138 -52 29 118 260 110 -42 -193 -238 -523 -35 1194 -315 -247 -176 -177 84 -14 155 -36 -59 -51 99 -63 35 -28 -145 176 44 -77 -49 -104 15 28 61 51 29 -114 -35 -44 -214 55 94 141 130 -95 -92 -116 -394 -333 1088 331 -636 -61 -186 130 -8 -29 107 34 -91 -1 13 0 48 -68 -114 74 73 -130 13 146 -34 -26 -92 -50 45 -27 -81 136 -104 185 146 0 -322 -235 -380 419 1038 -476 -188 -211 -28 72 130 -34 156 -1 -121 3 -142 -9 18 111 -22 30 -91 -70 46 101 -117 -36 72 -53 -92 18 -1 -45 234 41 -18 -224 -75 -635 196 1239 -525 -316 -130 -57 1 45 1 138 44 -23 -58 -200 26 60 82 -57 -86 20 86 -87 -48 -43 53 44 -73 -92 -50 65 127 205 -250 -39 -160 -7 -300 333 411 -499 -64 -175 -35 -50 141 112 46 -57 -60 -27 -93 17 -16 51 39 -34 22 -139 15 -3 -17 71 45 -66 -155 -72 -1 4 202 182 -110 -11 -217 -368 -323 1200 392 -627 -92 -259 48 -24 71 45 154 -3 -78 -32 -115 -57 88 72 17 -54 -150 -32 80 81 -16 -79 0 49 -114 17 -193 -53 170 157 143 -5 -193 -352 -289 -326 1097 521 -476 -216 -238 47 -123 200 -54 131 14 -44 14 128 -243 -279 -185 132 535 27 -181 -29 -133 -24 58 -8 21 -66 -74 18 -116 111 236 -82 -25 -321 -206 -542 822 948 -540 -394 -190 -38 11 134 101 -78 -2 -35 -75 3 45 20 27 -50 -29 -173 -93 158 92 8 99 -137 -109 -56 -103 -61 56 120 204 66 -134 -42 -273 -419 -180 1168 262 -521 -244 -156 91 -33 34 -15 198 -15 -24 -154 -104 -48 53 65 5 -37 -10 -38 24 -2 -20 20 -60 -1 -207 -137 278 125 117 -37 -136 -190 -187 -452 486 943 -499 -289 -116 -101 -68 157 17 114 -33 -17 -46 -120 -92 155 9 -65 54 -58 -81 51 62 -39 9 -39 -33 -97 -49 -15 -4 149 170 -110 -189 -205 -201 -438 1158 203 -559 -267 -141 89 -81 231 71 87 -181 1 -166 -30 -15 90 171 -34 -157 -100 -7 -48 69 180 -5 -179 -54 -116 43 -67 8 -18 284 94 -44 -92 -354 -559 221 1322 -222 -571 -103 -63 -44 100 195 -89 -36 -21 -14 -17 -24 -3 -19 93 6 -225 -6 30 8 5 85 -29 2 -100 11 -115 -94 27 170 128 18 -54 -213 -297 -249 774 -113 -290 29 -168 -86 72 60 -3 33 -58 -106 -3 56 -77 9 0 -38 -63 41 44 -97 73 54 -31 -93 -173 -39 84 58 -2 179 21 -74 -345 -224 -465 1043 451 -567 -78 -276 -73 -51 196 95 76 -51 -63 -65 -66 -64 -36 82 83 -43 -47 -126 91 164 -147'],['VivowatchSE-SNC-0004']
['2021-01-20 13:10:31'],[16.0],['199 345 645 167 -693 -179 -22 -38 51 -126 636 240 -238 39 -119 -356 281 -597 567 898 -623 -509 -359 12 471 673 660 269 -225 -822 -1090 -880 -782 451 1310 2711 2077 1162 -1869 -3264 -4249 -1117 -657 3549 3864 7037 2582 1904 -8365 -10127 -22115 -11549 32000 10786 -6705 -14338 -13578 -4702 934 4548 4859 6163 2852 831 -4113 -3414 -3288 -1086 518 2009 1968 1845 295 -6 -1281 -932 -1471 -193 414 628 808 422 52 -107 -221 -335 -197 -329 42 336 463 126 -75 -163 -440 -430 1008 614 -449 -266 -261 -5 37 193 126 170 -197 -77 -17 -43 -29 60 64 7 -156 50 169 -230 128 -116 50 157 13 -109 -60 -78 16 54 34 279 -121 -8 -170 -115 -412 193 794 -523 -201 -110 -10 97 -36 153 -4 -46 8 -42 -15 3 8 82 60 -76 -154 242 -73 -86 -20 32 193 -70 -56 -144 -64 83 -145 5 215 325 -144 -66 -280 -176 -297 163 1081 -145 -310 -182 -211 38 177 177 6 -181 64 4 -42 -33 -71 -83 158 115 -43 48 -183 -15 21 93 13 -38 6 -41 -41 -119 -43 198 181 -8 -152 -223 -264 -369 1020 295 -601 -51 -181 -20 62 80 -1 1 -90 25 85 -60 -134 83 70 -243 104 -65 188 -18 -207 87 -12 189 -77 -146 -46 -135 -27 70 256 196 56 -170 -291 -497 -303 1132 568 -430 -308 -308 73 27 77 176 -19 -121 18 -146 65 7 36 68 -190 80 -78 31 22 -21 -57 -36 128 12 -123 -129 -58 74 -8 266 28 -259 -35 -210 -132 -416 989 408 -607 -185 -204 -17 90 91 11 126 -114 -18 -140 -74 92 27 21 80 -152 -258 164 88 -57 -28 41 -84 158 -177 -65 69 -95 -74 -64 217 261 97 -291 -292 -110 -454 429 1026 -490 -291 -221 -62 94 94 -109 -25 242 49 -145 -88 -144 60 41 151 -60 -110 12 -162 65 45 78 -79 -15 71 -52 -111 -80 27 -56 176 227 -86 -159 0 -440 -624 1073 660 -634 -171 -205 132 -63 -4 142 -20 -17 46 -118 -45 6 28 -17 -131 128 -51 -5 -104 -48 133 146 -157 21 5 -20 -67 -261 162 69 236 -141 38 -205 -76 -270 31 538 -356 -128 -118 108 -22 -21 47 78 -60 -76 -116 114 -94 0 199 -50 28 -254 -112 58 69 177 11 -71 -40 -125 25 -140 50 21 123 124 71 -331 -147 -568 492 1003 -521 -268 -173 66 13 8 77 -67 63 38 -209 -70 67 58 -26 -18 -19 6 -80 -147 207 -12 13 -40 -144 -17 16 -149 87 25 146 128 28 -225 -300 -470 -30 1131 159 -284 -245 -331 -35 139 153 80 -67 -57 26 -21 -100 -123 258 -110 46 40 -138 -47 -2 10 40 221 -105 -197 -91 -57 41 121 104 134 -68 -225 -152 -190 -529 1084 366 -596 -158 -154 10 -90 106 138 35 -89 -24 -37 -169 16 83 -43 68 -5 -105 -62 -100 -35 26 223 131 -172 -269 -91 65 -86 8 165 300 -48 -128 -237 -192 -577 477 1023 -311 -157 -356 -110 15 208 0 45 42 -130 126 -103 -129 -10 18 89 37 -89 -152 40 139 -113 20 -6 0 -5 -69 -48 -207 3 81 178 206 -162 -108 -155 -216 -366 778 552 -460 -195 -262 122 104 4 -62 -84 -75 223 -43 -77 1 -155 -21 41 -19 46 -51 0 -59 -57 196 -128 -1 63 -80 0 -114 -135 36 87 153 81 -213 -149 -137 -322 345 307 -316 -67 -40 -161 36 41 -57 2 88 -76 -29 -61 -101 68 -48 120 -54 9 -136 -98 114 -12 105 -22 -97 -94 -109 -13 121 -163 143 183 75 -78 -356 -554 381 975 -258 -394 -62 -82 17 101 -22 -72 44 0 -29 -69 10 -35 45 -10 -20 -156 -12 -14 6 103 -46 21 -133 75 -149 -111 60 29 197 68 -62 39 -257 -283 -455 444 958 -520 -192 -173 -83 -4 69 -31 193 56 -163 -147 -69 50 29 19 -69 70 -76 -21 -130 -8 69 100 -10 -23 40 -165 -192 -40 -18 316 222 -85 -106 -332 -177 -531 1031 729 -536 -348 -364 106 119 111 -48 109 -59 -4 -76 -170 16 -17 128 117 -134 -150 -124 -37 121 -88 105 117 -107 22 -130 -180 -138 107 158 298 -9 -46 -288 -240 -506 240 1143 -505 -151 -202 -89 15 -111 117 156 -61 27 -82 -138 4 -34 116 -82 -36 -6 -73 44 15 -68 125 -37 -127 107 32 -121 -313 -3 311 206 -22 -148 -233 -243 -411 473 912 -292 -280 -165 -171 28 38 45 102 93 -74 -59 -77 -57 -93 41 85 -96 37 -37 -190 138 2 -21 20 -42 -150 -134 -16 126 164 122 -49 -103 -200 -131 -482 470 825 -371 -147 -175 -51 -99 139 53 22 -23 47 -14 -164 -100 83 6 109 -27 -247 71 -8 -10 19 -39 25 -52 -27 25 -93 -81 87 137 0 2 -231 -130 -331 548 100 -318 -108 -177 44 11 90 -1 -44 0 -41 -31 -50 -59 118 -108 -72 48 34 -93 70 -63 -21 -43 18 -15 -89 -7 2 -32 200 18 -40 -155 -203 -466 353 1128 -290 -387 -242 -171 -31 56 230 127 50 -230 -82 -55 17 -27 45 155 -56 -71 -124 -119 17 114 48 61 -67 -6 -238 -68 -44 -60 294 133 -31 -36 -198 -241 -500 349 1002 -333 -102 -152 -180 26 -10 58 67 129 -70 -86 -107 -6 -84 59 95 -71 -44 10 46 -280 55 37 43 75 1 -56 -270 -9 -38 111 227 15 -97 -238 -118 -438 357 1044 -384 -430 -80 -55 40 -70 101 -47 38 -10 74 -103 -97 -35 -48 45'],['VivowatchSE-SNC-0004']
['2021-01-20 13:12:56'],[16.0],['115 28 12 -41 45 -115 -51 -85 16 109 30 68 -45 -182 22 20 -47 84 17 -1 42 -19 -25 -7 -99 -30 -87 44 182 149 -68 -58 -131 -205 -510 965 524 -467 -144 -188 -35 -178 272 40 127 45 -124 -185 -28 38 -35 164 108 -128 -134 -74 47 55 -110 41 103 -51 21 113 -85 -43 -161 -98 -22 93 267 120 -91 -31 -332 -141 -523 942 705 -646 -118 -169 79 -40 -45 -7 143 36 63 -86 -88 -32 -57 6 31 114 -15 -9 -49 -67 -28 12 -1 -7 89 7 30 -35 -139 -44 -44 12 85 212 55 -129 -250 -41 -408 260 1110 -309 -406 -140 -286 -64 -16 211 325 309 164 -74 -336 -415 -473 -289 -110 382 730 946 673 270 -879 -1480 -1877 -1280 -185 2859 2965 898 459 -1843 -3160 -4961 -600 1886 6499 5424 -206 -2075 -5567 -3022 -138 2368 2579 1881 606 -381 -1225 -1198 -1016 -577 274 629 900 531 216 -91 -339 -581 -490 4 90 160 330 247 73 -270 -133 -191 -17 -75 116 368 12 60 -362 -195 -489 541 1021 -433 -166 -351 -108 123 160 123 -13 78 -164 -134 17 4 -19 129 40 -18 14 -140 -90 11 102 -51 69 154 -113 -18 -56 -118 -8 -119 10 326 283 -166 -68 -195 -108 -477 76 1212 -63 -504 -148 -122 18 44 66 59 157 -8 -235 -120 -55 -12 229 100 -52 -143 -128 43 -14 -4 20 -5 -7 54 122 -96 -174 -164 -68 111 144 92 97 -111 -113 -156 -143 -404 682 668 -501 -214 -187 5 72 104 37 7 -43 36 -12 -55 -139 -90 136 93 61 26 -70 -86 -151 -164 221 19 45 120 0 44 -150 -200 9 -156 8 201 359 198 -121 -216 -201 -428 -391 1013 429 -247 2 -256 -206 -144 -41 214 165 -24 -22 -15 -124 -142 24 58 182 19 -145 -85 -21 19 6 62 49 -36 20 26 -126 -55 -76 -156 241 336 -21 -119 -75 -239 -435 77 1093 -23 -433 -117 -143 -4 13 168 24 61 83 -160 -182 -138 21 203 148 26 -258 -58 -74 113 -15 -71 14 142 91 -164 -134 -179 134 122 113 101 -36 -249 8 -377 -154 924 -272 -88 -121 -142 -48 -119 250 133 -2 -45 -217 -102 70 72 120 1 -20 -174 -45 19 101 -39 71 74 -22 -7 -110 -188 -14 81 65 253 -3 31 -143 -222 -449 1 1094 9 -421 -164 -128 107 132 20 -78 57 -8 -116 -2 110 -68 64 -104 39 -27 15 1 -73 -22 25 93 68 26 -149 -99 118 -72 -216 197 311 -29 -46 -173 -50 -437 -275 1039 -51 -268 -147 -288 107 -47 55 167 21 -31 -77 -115 62 80 -57 33 121 -111 -216 -30 113 126 34 27 -2 -154 -128 35 3 -19 49 210 57 -18 -21 -262 -174 -397 750 552 -350 -128 -212 6 -138 95 121 54 161 -87 -138 -45 -138 209 -63 30 -57 -79 105 4 59 5 -135 -82 21 85 -82 -90 119 122 81 -37 -146 -187 -412 46 983 -208 -219 -267 -179 66 -12 94 127 149 -52 -80 -181 -56 39 51 159 61 -52 -149 -62 85 43 58 -46 -63 41 -74 -54 114 46 84 -25 -67 -159 -79 -567 911 668 -508 -367 -304 189 -36 54 34 256 7 -143 -164 -35 6 12 130 78 -37 -106 -59 -160 132 84 161 -125 -56 -48 -200 57 33 -19 276 117 -126 -103 -182 -430 -179 1206 220 -460 -193 -342 56 91 151 60 32 13 -15 -63 -141 -82 115 74 13 -26 -39 -5 -77 36 182 -106 -7 -87 -45 -36 27 182 144 -42 -4 -158 -251 -469 457 864 -393 -120 -270 -37 83 -73 96 101 74 69 -104 -249 48 164 -49 54 -53 -6 25 -92 36 -13 34 54 -109 -65 3 -45 125 186 -50 -38 -200 14 -375 207 504 -316 -171 -188 29 117 26 -12 27 -154 78 15 14 27 -33 37 -17 -74 -7 -94 133 38 0 27 53 -105 -104 -184 -41 229 220 112 -66 -108 -397 -208 -125 1103 244 -472 -238 -114 -173 82 303 -52 93 -80 -17 -48 20 -98 24 94 82 -145 -131 125 -68 18 141 -5 -3 -100 -254 24 64 -34 152 343 -118 -201 -110 -247 -395 332 1099 -163 -463 -98 -68 63 90 31 120 -43 -77 5 -20 -44 6 115 16 -141 -79 98 16 122 -121 -43 89 -37 -53 34 -74 -138 113 201 68 -87 -22 -274 -247 -352 1120 156 -543 -65 -263 35 55 89 -10 150 10 26 -218 -162 33 155 87 85 -73 -152 -70 -82 101 147 61 -117 0 66 -259 -70 66 63 119 189 -76 -66 -162 -127 -513 396 1035 -455 -88 -149 -28 -66 -19 190 50 -58 38 33 -146 -7 -32 -49 88 139 -89 19 -150 16 60 31 192 -163 -123 -56 122 33 97 16 119 -150 -191 -165 -181 740 -98 -173 -238 -40 60 -49 40 165 81 -105 -104 -19 -50 17 60 -40 175 -118 9 -53 25 13 73 -81 80 -43 -96 79 -92 207 -29 29 -179 31 -350 38 579 -386 -99 -94 96 -51 40 -56 136 71 -45 -64 -94 33 88 46 11 40 -111 42 -94 46 122 -36 5 -41 -70 63 -51 160 54 37 -338 -122 -199 472 186 -289 16 -244 -78 -111 256 154 78 -106 -114 -55 62 -14 -6 -29 -16 150 -43 67 -35 -129 87 -61 -25 -41 88 61 142 62 -50 -224 -49 -268 -158 937 -88 -320 -203 1 -199 39 163 31 181 -84 -115 -120 95 -49 0 -5 102 -10 10 24 51 28 -38 -112 -31 -150 137 143 181 126 -78 -92 -233 -331 -224 918'],['VivowatchSE-SNC-0004']
['2021-01-20 13:13:40'],[16.0],['-96 -50 -2 11 -36 119 379 59 -153 -123 -168 -563 384 1128 -217 -273 -344 24 131 68 234 -77 61 -94 -24 11 -49 0 234 264 -91 16 -176 -371 -50 76 568 455 111 -238 -634 -204 100 497 315 78 -16 -217 -296 -506 815 525 -452 -152 10 163 -8 34 99 -46 26 -28 -53 145 -129 -53 113 115 -18 24 -48 -5 90 43 -31 -20 -21 -100 -21 77 338 94 6 -292 -188 -208 -106 1014 -205 -256 -190 -64 84 -1 35 61 185 -123 -47 63 -56 0 47 -39 75 54 -60 17 67 5 51 -56 -59 -90 129 43 167 75 -33 -138 -100 -239 -104 996 -341 -375 6 -56 100 -9 71 22 52 25 -25 -18 -78 -49 87 31 73 77 -36 38 -47 -142 -60 84 68 44 -50 177 71 71 -359 -240 -200 101 954 -27 -284 -150 -74 78 51 119 -34 -23 -96 161 106 52 -27 -15 -74 -282 -368 -878 2508 725 -982 -732 -934 -795 329 1022 1398 803 -448 -590 -816 -827 -803 1126 465 1693 -84 -1525 -1288 1598 113 459 -23 -1111 -6835 1853 11091 -1679 -960 -2054 -2507 -1641 1392 2084 1439 461 -484 -751 -802 -555 -111 307 448 504 163 132 -320 -726 354 822 -633 -196 -164 229 31 205 0 -40 31 69 -109 -214 -24 34 39 114 208 -158 7 -18 66 87 -111 -100 -6 -15 80 158 215 -46 -82 -202 -87 -419 188 1166 -179 -394 -156 -95 6 45 1 105 177 -126 3 -166 74 29 -35 82 7 26 -95 17 65 29 49 40 -88 -114 -79 16 46 216 252 80 -272 -189 -470 -337 1249 429 -408 -187 -159 35 -101 110 76 92 7 30 37 -61 -94 53 -3 -189 21 171 215 20 -92 -72 -148 -15 -36 7 24 289 73 -96 25 -70 -85 -114 -97 -483 1084 336 -473 -174 -289 5 22 310 2 -17 -20 16 -20 3 -48 -40 82 9 -84 52 116 -56 12 34 -42 42 62 -96 -127 -121 174 128 256 -44 -88 -150 -182 -348 157 1110 -49 -558 -176 60 91 42 46 45 -20 -4 -64 -17 80 50 -26 -71 23 -44 34 32 -31 -13 122 3 11 75 -204 -67 -4 1 183 255 -76 -52 -244 -41 -206 39 578 -269 -22 -133 -78 -61 92 131 -3 50 -45 -6 -11 -24 -53 39 61 76 -104 -49 9 159 -16 -70 -4 -1 10 -157 36 27 270 37 -62 -177 -185 -295 308 846 -182 -320 -148 -34 -102 203 12 12 173 -78 -29 -89 -77 33 150 42 -38 -141 -3 -4 83 56 15 90 -43 -150 -79 -93 65 142 225 127 12 -304 -230 -569 518 982 -345 -158 -168 -44 -166 -9 172 135 55 -77 -121 -57 50 54 15 -120 44 -23 16 -5 32 122 -7 -109 -40 -1 37 -66 -91 40 233 135 -2 -133 -265 -256 -288 933 -3 -303 -124 -230 171 -76 31 -16 49 -23 103 159 -38 -174 -69 -68 16 -110 87 137 267 167 -217 -121 -163 -509 -261 1190 455 -423 -324 -133 0 -1 200 -16 52 -18 -22 -9 34 -45 -28 0 77 -47 -80 -8 141 -21 -89 -22 52 96 -15 -144 -71 -131 -35 188 364 -57 -103 -254 -264 -276 287 1101 -248 -374 -250 -35 22 -13 116 -7 47 -26 22 -88 61 -172 2 162 -19 -5 -26 7 -46 -62 39 23 0 119 -5 -5 -96 -125 -116 48 17 258 150 -161 -38 -323 -199 -531 1048 595 -479 -212 -292 -39 27 155 64 59 -20 -52 -26 -28 -113 106 108 -54 -80 54 38 -37 -105 -25 119 32 43 -23 -151 -111 74 -89 25 77 247 2 -12 -229 -266 -454 417 997 -437 -238 -178 -136 3 178 26 91 -42 -71 23 -68 -17 -6 45 -85 69 99 -42 -65 -102 -1 99 108 -36 -20 -167 -139 45 170 125 31 -57 -112 -119 -259 -228 1060 350 -561 -203 -247 33 149 138 82 -2 -121 53 -154 -64 39 87 85 -72 -27 14 -114 70 -58 19 145 -2 86 -130 -35 -157 -153 63 147 350 56 -96 -355 -134 -454 75 1152 -233 -327 -312 -48 38 -3 72 26 92 -73 14 -10 -8 -151 -43 102 102 -7 -80 -12 -39 119 -106 129 -39 -142 0 -45 -100 -68 139 375 16 -190 -74 -195 -509 49 1214 13 -472 -234 -76 124 0 35 25 99 -19 -42 -126 -32 34 62 0 -20 25 -62 -110 35 20 -45 130 56 -108 -41 -39 -24 -107 -38 165 261 -90 5 -223 -67 -467 303 434 -349 15 -214 66 -108 87 -52 96 98 -42 -94 0 -47 -47 147 79 -52 -92 -13 -65 89 35 -15 -53 74 29 105 -121 -167 -156 -10 208 287 94 -127 -131 -178 -325 -400 950 499 -335 -221 -191 -57 -1 182 27 -36 29 35 -136 18 -101 44 106 16 -99 34 -102 -40 -5 88 99 -10 -37 -125 -9 -39 -44 -39 57 186 157 -30 -74 -280 -298 -350 877 679 -476 -212 -270 -32 17 163 99 -20 11 -6 -26 -77 -118 75 41 -30 12 -62 -29 14 7 14 72 -45 7 -16 -242 24 95 142 225 -104 -70 -161 -42 -388 111 869 -305 -267 -137 -29 -3 53 25 93 -5 -4 -77 -116 47 1 29 -5 8 -19 -18 0 -24 -118 133 13 126 -172 -71 -219 -9 274 189 29 -132 -180 -196 -405 407 1065 -380 -267 -243 -201 85 153 151 -23 -104 -85 35 38 -1 -66 -42 79 26 -74 -125 -48 103 51 36 20 -62 -42 8 -196 46 -88 206 106 57 33 -81 -195 -339 -451 768 882 -552 -283 -201 18 -11 198 24 -51 -20 16 -54 15 -113 -15 106 36 22 -56 -89 13 -38 92 11 77 -39 -49 -87 -150 -12 54 68 109 119 -77 21 -223 -383 -355 1081 456 -613 -111 -136 -106 84 66 40 130 -43 13 -228 49 -12 57 -25 110 -1 -180 -63 41 17 -86 138 -2 30 -36 -43 -66 -40 -139 29 112 301 -10 -47 -251 -245 -401 368 1115 -269 -267 -353 -123 35 62 123 33 65 -110 13 -79 -82 -5 115 -2 41 36 -41 -125 -83 19 66 52 47 -20 54 -82 -128 -45 -67 150 122 161 -109 11 -134 -151 -364 -73 929 -195 -367 -62 -134 30 -3 86 78 7 9 -134 6 -32 -23 102 50 13 -99 -14 -45 -19 32 -35 86 4 51 -80 -36 -3 -68 -129 -20 109 318 59 -101 -185 -70 -319 -319 1071 -186 -329 -63 -92 -96 -30 95 60 121 -79 -38 -42'],['VivowatchSE-SNC-0004']
['2021-01-20 13:14:18'],[16.0],['-274 -32 -204 -4 -612 543 1064 -485 -267 -104 -26 -10 140 -38 57 118 58 -48 -185 -88 123 58 76 140 -21 -119 -110 -69 51 42 220 24 -44 38 -63 -86 -95 -54 22 160 184 170 -117 23 -225 -130 -730 877 928 -523 -2 -199 -198 -44 197 133 88 -16 3 -26 -106 4 12 90 -15 45 44 -94 -54 -6 17 127 -65 -78 207 40 -97 39 -97 -71 -84 79 104 116 166 -41 -166 -194 -367 -310 1156 408 -560 -128 -190 16 -79 110 248 91 -103 -67 -151 -41 131 130 -7 -111 -67 4 69 45 -35 91 -113 -76 15 41 72 0 77 -60 -103 -117 -39 120 10 237 159 16 -269 -245 -509 78 1144 114 -422 -181 2 -78 -19 39 214 65 -62 -33 -96 -73 -56 107 67 63 47 -78 -15 -136 -8 168 -56 -87 7 67 106 116 -116 -117 -159 -1 43 89 122 143 -73 -14 -198 -123 -315 28 818 -373 -231 -103 5 48 -80 168 28 -29 -16 -95 51 25 -71 50 67 -57 -33 22 -77 -3 129 -43 -88 52 70 -48 61 -39 -37 -80 -151 121 206 121 -62 -137 -164 -213 -144 694 -84 -306 -79 -69 85 -66 35 -5 104 44 -40 -98 -174 73 148 72 101 -223 -3 -7 -83 87 65 66 -125 26 -16 57 -3 -145 -93 15 39 253 177 -115 -199 -193 -367 -104 1126 132 -426 -206 -101 18 25 210 -8 124 -103 -143 -172 33 26 58 77 66 0 -218 -47 51 -33 -28 103 53 -2 -41 -40 41 -122 -92 -58 71 -16 54 321 3 -159 -245 -167 -646 539 1144 -542 -273 -232 -68 16 63 105 -7 44 42 -154 -67 -123 13 158 -7 17 -38 71 -68 -219 16 -34 122 57 -62 -43 -27 30 -47 -23 -242 -34 85 271 271 -283 -66 -167 -174 -329 510 305 -357 -25 -303 -59 93 44 37 84 -58 -141 73 -17 -104 -102 0 173 52 -63 -39 21 -126 -183 125 41 -9 -25 128 44 -195 -81 -48 -44 -34 134 -2 297 8 -181 -289 -244 -479 841 861 -558 -281 -264 -51 56 50 11 113 103 -78 -164 -192 74 72 94 132 -172 -94 -24 -57 84 66 -88 34 -92 71 42 -23 -34 -18 -130 -14 -6 -81 148 164 87 -127 -211 -154 -325 -168 1133 188 -517 -278 -170 133 104 144 -33 40 -107 -187 27 104 -35 105 -68 -78 -40 -80 -24 86 4 48 -15 -18 -82 9 -65 -155 22 49 129 20 26 -19 -130 -162 -69 -378 850 171 -471 6 -220 -55 11 174 -5 72 67 -181 -42 -53 -65 120 43 81 -12 -200 -128 24 56 61 9 96 -44 -99 -125 -28 -71 1 133 150 144 -24 -263 -271 -460 166 1148 -25 -396 -283 -16 143 -75 97 39 -25 -117 100 -48 -40 -13 -61 79 -74 1 -4 -9 -50 -33 79 23 105 -127 -42 -128 -91 68 -27 124 54 121 -65 -106 -75 -317 -686 880 957 -492 -241 -341 -168 12 267 178 103 -131 -157 -57 -77 -39 83 57 48 35 -166 29 -60 -101 46 58 -44 161 -2 -9 54 -181 -93 -74 -16 6 183 244 50 -123 -118 -285 -362 -287 1185 471 -525 -267 -378 199 -66 114 119 110 -52 -188 -62 6 -9 76 39 -74 -33 6 -40 36 -44 -19 -1 -81 22 116 -24 -84 25 -108 33 -193 -75 178 167 104 -66 -13 -273 -212 -627 640 1025 -524 -223 -224 -33 -76 140 69 -1 -14 -16 -36 -78 -40 24 82 -30 -115 52 28 -44 -26 -103 25 8 -6 116 -82 3 0 17 -159 -53 -10 -30 179 -43 194 -60 -56 -252 -422 -369 1212 306 -593 -196 -289 -31 74 106 110 187 -113 -124 -111 -46 -58 71 76 56 17 -78 -120 48 -52 -108 50 32 49 -43 64 -49 -40 74 -67 -187 -17 21 61 175 140 -105 -42 -173 -287 -438 506 1073 -326 -501 -126 -130 72 151 -79 82 102 -118 -106 -65 -64 54 11 42 25 2 -72 -135 -54 43 186 -55 -66 48 -71 30 -3 -154 -106 -59 165 147 211 -137 -145 -247 -232 -189 729 646 -557 -324 -123 75 16 129 49 -93 -61 61 57 -47 -72 -94 -38 126 127 -71 -78 32 -116 -61 -5 32 103 -39 35 51 -76 -30 -184 -181 80 145 312 13 -40 -232 -165 -681 324 1069 -263 -223 -163 -80 -5 -17 -154 107 204 -36 -84 -178 -98 15 176 -47 -62 -128 62 105 -94 27 -47 -105 -10 75 27 34 52 12 -251 -148 -81 177 205 179 -61 -70 -208 -93 -572 152 1074 -145 -177 -334 11 -51 16 109 51 -40 28 64 -155 -109 -54 187 12 26 -5 -19 -147 20 -71 27 66 15 -11 -115 89 -85 99 -165 29 -193 4 248 172 28 -49 -189 -184 -333 -291 1179 -190 -391 -148 -150 68 -45 -24 223 36 15 -50 -229 49 -16 4 -10 159 -52 -99 19 17 -18 -7 25 -176 127 27 -38 128 -135 67 -81 -83 -283 84 202 273 17 -101 -274 -193 -435 304 1173 -240 -314 -217 -302 89 125 150 67 -82 -79 -102 81 8 -27 -42 62 -35 -26 -43 -50 92 -55 -133 58 152 59 42 -222 -44 -68 -8 89 -16 85 165 -150 -116 -141 -101 -435 738 554 -500 -185 -183 -11 2 186 -1 -44 61 -13 -164 -64 52 0 94 137 -106 -107 -208 -8 219 -48 38 84 -21 36 -150 -162 -117 37 207 226 71 -155 -161 -89 -239 -438 937 405 -380 -122 -161 -53 -17 165 34 -17 -95 134 -68 -132 -65 73 209 -77 -183 -24 39 24 -63 59 89 -78'],['VivowatchSE-SNC-0004']
['2021-01-20 13:15:06'],[16.0],['-16 10 11 -167 157 20 31 148 16 -55 -167 -99 97 270 59 -51 -177 -46 109 122 4 -149 117 180 31 -270 -121 -112 216 879 -349 -342 -44 -116 8 -26 191 276 160 -294 -104 -25 -1 -15 49 328 -64 -106 -82 -153 73 52 -20 178 190 5 -292 -270 135 110 36 217 229 -158 -255 -68 -245 -275 1076 431 -511 -237 -293 79 211 264 -44 -73 42 -133 -132 -83 185 208 106 150 -455 -302 131 198 148 106 -86 -244 295 -162 -193 -58 64 97 138 327 -207 27 -203 -201 -553 706 1022 -504 -384 -134 -38 72 164 -16 102 -10 -37 -115 -2 -47 74 133 106 -65 -202 -2 -170 114 154 -69 83 22 -4 -84 -132 -13 -113 206 173 99 58 -73 -269 -178 -357 326 476 -191 -30 -153 -207 -1 121 -64 -33 167 95 -108 -10 -164 -18 147 91 -22 24 -219 -133 211 123 43 -173 -25 126 -4 36 -51 -250 5 83 158 425 -70 -180 -211 -241 -572 577 1152 -548 -285 -125 -82 -112 48 201 159 -153 -29 64 -74 -163 66 121 -5 59 1 -97 -62 -69 38 89 185 109 -100 45 -74 -135 -308 -128 74 139 409 456 339 41 -533 -919 -1089 423 616 -208 680 826 991 383 -409 -1245 -1865 -1855 -507 1153 2413 3298 2338 171 -2710 -6978 -8702 6477 8419 2993 -143 -1953 -595 -2222 -1460 -2709 1526 1087 -326 3039 2145 456 -2259 -2190 -1755 -533 -116 1941 2010 453 340 -675 -861 -770 -566 -154 325 645 229 42 154 -120 -178 -53 -401 70 3 -61 159 65 311 -37 -81 -36 -119 -59 116 -53 -58 59 105 121 14 -267 -122 -292 145 685 -402 -297 -58 103 -83 127 133 -153 14 -34 36 -24 -96 13 10 69 -3 3 -98 -74 37 28 -43 90 19 20 -55 -57 -31 -186 82 71 320 -51 41 -210 -135 -577 -63 1237 -21 -317 -154 -104 -88 52 209 54 -20 -109 -223 54 194 -164 -21 112 99 -56 -73 -189 -9 35 146 52 46 -75 -19 -107 -171 -84 -88 271 178 92 -59 -3 -356 -398 -403 1055 757 -479 -385 -286 46 61 184 119 33 -147 -138 -49 -32 107 181 -175 39 -18 -78 -67 44 -70 -16 12 57 111 6 0 -347 -116 -40 59 267 1 217 -111 -131 -191 -198 -594 871 993 -595 -313 -288 7 3 246 -8 7 31 -83 27 -139 -3 19 29 72 -37 -118 -36 -62 62 -14 -3 11 15 12 -66 -77 -57 -23 -72 36 205 33 -77 15 -226 -252 -558 917 648 -494 -212 -311 2 0 87 35 143 -63 -170 -20 -33 -32 66 154 -94 -119 -143 75 49 52 -17 -96 57 61 -53 -45 -137 20 -45 22 0 184 65 -74 -49 -249 -222 -191 759 -75 -199 -111 -221 0 -73 62 61 150 61 -98 -100 -168 -62 101 51 94 -27 -45 -45 -26 -107 76 58 -46 26 -79 -146 43 82 148 -57 -65 -8 -316 -84 -153 905 284 -674 -271 -110 65 84 221 1 -30 -107 -95 -33 -28 7 86 88 15 -195 -108 86 -147 33 71 44 25 -33 -65 -146 -160 9 150 214 149 -173 -90 -114 -285 -535 929 609 -532 -80 -209 0 -14 111 19 -6 -41 16 -126 18 -20 45 -25 -53 -37 -117 112 -41 23 -73 31 109 -91 3 -123 -93 -146 78 125 248 63 -109 -282 -202 -653 647 1003 -315 -204 -390 -60 -111 196 172 104 -61 -124 -34 -58 24 -47 30 32 12 -25 -76 -106 -14 32 -1 -47 79 93 -80 -170 -77 -45 42 182 114 -113 -16 -151 -107 -394 261 517 -373 -145 -221 -64 29 83 110 37 -28 -117 -131 -7 -68 84 139 -36 47 -233 -47 -1 -25 43 119 -69 2 -15 -116 -18 -243 43 192 179 198 -230 -129 -163 -203 -532 650 1041 -550 -271 -219 16 -11 82 91 141 -47 -167 -84 -63 5 18 140 -16 -104 -106 49 -45 5 -84 36 89 40 -145 -83 -104 0 -2 126 141 -50 -167 -280 -293 -90 942 -156 -388 -226 -137 24 162 102 -47 37 -91 -122 18 76 -71 -65 -3 78 -71 1 27 -7 -137 -9 118 -10 -136 -183 -66 85 230 125 22 -244 -331 -46 -485 873 721 -467 -281 -248 -46 -33 85 129 141 -50 -15 -100 -83 43 -133 -13 169 -178 -14 20 37 11 -18 -54 12 -99 -49 -57 -14 123 258 51 -129 -119 -182 -467 -231 1279 371 -607 -287 -115 -36 131 142 -27 32 58 -129 -45 -57 -22 9 108 34 -171 -33 -114 78 133 35 -59 23 -51 -114 -97 -56 3 141 241 44 -116 -270 -179 -333 -94 1037 -209 -331 -122 -253 89 -4 28 76 128 -5 -220 28 -12 -19 74 -70 130 -84 -115 -32 -20 -26 54 109 17 -47 -21 -194 -110 3 39 77 281 45 17 -351 -226 -484 42 1280 -32 -305 -187 -156 -116 56 118 142 107 -77 -98 -116 -162 111 159 39 -30 -78 -45 -22 -24 -102 115 99 50 -98 -87 4 -14 -60 -73 -94 159 371 -47 -36 -136 -301 -529 154 1301 -86 -508 -229 -87 76 -1 148 -55 22 35 82 -138 -75 -78 35 196 -21 -28 -50 -109 -52 60 130 -24 11 -65 46 -35 -108 -145 -45 66 344 56 -36 -118 -323 -413 -26 1239 125 -412 -228 -217 -39 -37 152 113 91 -67 79 -177 -171 -5 74 124 -48 -7 -25 -97 12 54 16 29 4 -151 -91 -32 70 67 139 87 -90 -77 -208 -163 -341 839 513 -494 -201 -182 88 -66 163 15 68 46 -95 32 -87 -142 50 74 79 -16 -102 -62 23 109 48 -103 -74 -55 65 -149 -48 128 284 33 -104 -362 -46 -326 93 1095 -477 -172 -213 -72 -22 -37 95 156 104 7 -170 -274 85 77 96 -24 11 -57 -105 13 98 86 -2 -135 37 35 -217 -81 97 203 113 -13 -70 -382 -231 -449 1163 368 -506 -172 -443 -4 196 224 -81 -12 39 -50 -151 63 -21 53 103 -55 -61 -52 -25 49 37 -22 38 40 -10 -94 -218 -64 142 176 151 -54 -62 -173 -203 -743 834 941 -550 -228 -258 22 110 18 -40 118 15 16 -172 -104 133 -11 43 5 -15 -19 -173 -2 40 174 84 -109 -11 -173 -53 -115 117 112 200 59 101 -253 -375 -558 84 1413 -401 -309 -254 -213 49 53 139 73 45 -112 -19 -110 -6 3 147 27 -128 16 -123 64 85 1 26 -60 66 -61 -217 -40 80 38 280 -12 3 -219 -224 -519 398 1085 -149 -338 -249 -142 -46 40 82 115 144 55 -109 -230 -112 3 129 162 -36 -109 -2 -41 -50 124 -10 43 -114 -158 -45 97 89 177 14 -168 -116 -79 -298 -153 957 146 -409 -145 -174 -16 81 97 41 67 55 -95 -155 -18 -49 131 -3 -42 1 18 -101 -33 97 117 -68 -93 -43 -115 0 40 181 101 82 -14 -268 -337 -458 824 735 -378 -171 -245 -140 8 205 53 101 51 -92 -175 7 -99 146 117 -52 9 -86 -100 42 140 3 -49 44 -109 -33 -98 10 183 178 6 -146 10 -140 -328 -273 1078 -143 -407 -140 -288 83 -15 294 45 -39 -129 -34 -33 -39 39 52 54 55 -138 -39 1 -45 138 84 -23 16 -99 -187 -15 -53 68 198 243 -41 -152 -299 -149 -511 552 1141 -338 -397 -347 -48 66 179 153 44 -102 -25 -20 -78 46 6 13 96 -55 -189 7 6 59 -9 135 57 -146 -109 -53 -4 -175 80 226 252 -109 -22 -248 -112 -485 97 1189 -339 -312 -272 -55 -32 63 88 109 44 -126 -58 4 -33 -137 76 55 96 0 -137 -34 12 41 58 99 -65 -202 -42 -79 -10 182 237 -8 -157 -136 -216 -406 315 1118 -151 -589 -138 -84 4 9 157 160 -58 -71 27 -101 -83 -74 40 126 20 52 -133 -72 47 -102 115 128 -34 -121 -89 -158 70 287 223 -88 -194 -145 -313 -279 899 346 -423 -79 -240 -13 56 98 59 27 -10 -68 -76 37 -47 57 91 -130 -175 -55 144 161 -25 13 -89 -50 -29 -127 -95 145 251 201 -12 -84 -309 -423 -376 927 768 -464 -240 -158 18 -62 45 47 138 12 -62 -22 -20 -41 -121 143 68 -53 -15 -130'],['VivowatchSE-SNC-0004']
['2021-01-20 13:15:44'],[16.0],['-195 -76 98 13 116 -100 14 67 -67 -173 -59 -30 28 232 237 -118 14 -237 -139 -526 -38 1293 -319 -291 -253 -236 141 39 -3 87 121 -86 -25 -9 -105 -47 87 -8 12 20 -70 -81 27 66 73 -7 -12 -34 -215 -31 3 96 93 155 80 -137 -235 -302 -440 1186 460 -468 -150 -354 25 -19 199 34 152 -108 -117 -34 14 18 126 -8 -72 1 -9 -132 -130 161 119 59 -25 -111 -153 9 -193 -10 160 215 221 -123 -146 -197 -94 -540 256 1117 -400 -244 -178 -258 -16 147 160 -55 -71 52 72 -66 -208 32 137 -21 -29 55 -116 32 -24 29 104 -25 -162 -55 0 -38 22 133 155 -172 -46 -165 -137 -538 918 462 -565 -65 -146 -40 -26 -5 100 127 -125 21 -9 -70 -126 37 69 41 -126 -66 146 -115 23 -10 56 78 -60 -115 -134 -11 26 34 232 4 -11 -97 -136 -552 -119 1235 90 -433 -343 33 48 -119 203 65 -27 -126 38 32 -67 -123 102 29 59 -155 -81 50 32 111 -113 36 -69 60 -55 -164 -116 -19 190 262 -109 -61 -77 -138 -392 -326 1151 -161 -284 -168 -239 68 50 73 -5 91 -65 -87 -7 74 -92 -5 70 51 -107 -212 31 170 9 14 -49 -6 -14 14 -64 -101 -191 136 233 234 -12 -136 -216 -163 -469 -56 1301 38 -334 -228 -217 71 -24 116 123 32 -73 -73 -50 -68 -38 169 4 0 -31 -53 -23 -58 -72 34 91 97 -28 -97 -27 -47 -143 -150 125 185 226 -43 4 -165 -177 -562 -186 1363 246 -546 -177 -258 -33 -7 265 63 77 -117 -168 74 -34 -55 86 90 -123 -1 -83 -11 3 41 35 -130 46 87 -35 -101 -113 64 -14 -41 -24 373 67 -134 -239 -247 -426 479 1079 -472 -346 -134 -67 -70 173 88 30 80 -79 -85 -122 107 -20 12 -14 30 -50 -144 44 115 -12 49 -42 -73 -91 -3 -129 8 185 58 202 -126 -114 -116 -192 -464 603 818 -527 -63 -203 -111 20 50 72 93 -82 -5 72 -100 -10 -62 -37 87 -7 54 -190 42 121 24 15 -104 -8 -56 -70 -134 15 165 343 -131 -112 -242 -209 -384 414 1078 -374 -276 -122 -193 -4 38 45 115 128 -108 -84 -44 -21 111 47 0 -135 -151 88 38 1 75 -37 50 50 -158 -103 -24 -69 21 103 72 289 -43 -143 -263 -311 -486 915 848 -526 -222 -320 -85 125 234 33 2 -60 -58 -152 -23 99 179 -67 -60 -12 -95 0 -106 130 -18 59 48 53 34 -195 -75 -128 35 72 136 90 49 37 -87 -213 -359 -474 1120 649 -581 -173 -182 3 -84 177 19 119 75 -42 -139 -101 -19 91 45 85 -118 -98 136 -33 -68 -103 113 -2 112 -51 38 -33 -303 71 -91 131 223 202 -38 -61 -257 -200 -579 508 1206 -281 -447 -218 -82 -32 168 133 100 -12 -68 -171 19 35 13 -15 19 42 6 -8 -29 -40 -37 10 -126 156 132 32 -63 -93 -84 -24 -149 126 176 208 -15 19 -189 -155 -516 187 1180 -288 -307 -184 -78 48 126 13 7 35 -131 -27 75 32 -71 21 -6 100 -42 -57 -113 81 59 54 27 -65 58 -42 -102 -132 47 85 79 169 -110 2 -219 -128 -401 752 531 -439 -204 -261 122 87 79 -63 -41 -8 123 -64 -49 -56 -47 186 29 -25 -139 -9 51 -62 190 -20 -42 -52 31 -30 -88 -107 64 180 196 85 -90 -246 -234 -171 -106 1078 135 -381 -106 -282 122 145 87 -3 41 38 -115 -116 68 33 152 -70 -37 -10 -54 -88 212 -19 -2 157 -77 -3 -119 -29 -54 -8 7 173 307 38 -53 -374 -225 -510 666 1127 -435 -357 -228 -34 151 61 42 18 94 -86 -95 89 22 -138 128 49 -123 -95 -47 173 90 -80 24 -46 9 106 16 -74 -147 -101 120 161 296 -149 -165 -116 -22 -325 0 830 -284 -234 -161 -73 -15 130 151 76 -70 -97 -3 -26 -33 19 192 40 6 -181 -45 73 12 -59 141 10 -84 -1 165 -15 -161 -121 -174 163 230 278 73 -112 -401 -142 -478 360 1161 -532 -128 -196 -78 60 -27 106 63 50 -91 10 0 36 -45 -9 57 -73 75 -38 86 -23 -126 56 21 -2 177 82 -144 -114 -152'],['VivowatchSE-SNC-0004']
['2021-01-20 13:16:24'],[16.0],['-95 -123 -17 -13 77 22 94 160 -183 -45 -176 55 102 53 83 81 -85 -62 -54 25 -219 -45 208 150 173 -30 -164 -197 -399 -244 1177 126 -623 98 -5 -157 -18 121 -74 34 25 0 27 87 -84 -170 113 184 -45 -99 -176 -66 299 6 -72 -106 79 166 -127 -239 -44 135 -12 88 167 120 -165 -7 -299 -42 -557 860 895 -577 -287 -358 154 36 114 -85 120 185 127 -285 -441 95 174 173 56 -87 -125 85 -4 -35 -80 -48 81 -155 99 382 -119 -157 -38 -49 -191 -291 254 358 416 20 -109 -523 -332 -424 502 1343 -236 -365 -281 -129 -51 -25 119 134 51 182 -36 -302 -86 -67 119 165 131 -59 -225 1 14 -109 24 232 -110 25 -47 -40 64 -93 -58 -143 79 157 143 130 -93 -138 -120 -177 -493 590 952 -429 -316 -134 182 -110 89 26 82 -47 -85 148 -15 34 -177 -39 7 135 67 -47 -24 -107 -7 21 21 63 -26 21 1 -22 -42 -260 61 135 374 63 -197 -24 -350 -599 267 1221 -77 -424 -219 -176 58 12 67 74 138 10 -55 -197 -124 -71 183 187 0 -51 -36 -187 6 6 80 101 3 51 -58 -59 -91 -48 -135 -17 321 258 -139 -117 -66 -311 -404 959 439 -581 -5 -32 -36 -142 153 43 -53 -2 8 110 -45 -36 -118 -6 125 -56 -82 2 -5 183 -104 -89 -183 41 167 -9 132 29 -252 -217 102 -13 57 189 121 -83 75 -318 -291 -386 979 604 -559 -109 -360 35 73 128 26 105 79 -109 -188 -78 -138 85 141 57 39 -59 -9 -153 -23 -64 64 137 -130 250 -156 -153 125 -82 -150 -9 105 -106 21 104 211 -113 -12 -182 -167 -553 427 1155 -510 -239 -420 -2 28 100 232 -12 -39 -20 -159 -211 93 16 92 122 75 -65 -132 -291 124 63 63 105 -18 -111 -53 95 -26 -34 -37 -7 56 7 -165 -28 236 40 76 5 -400 -189 -435 1201 465 -650 -125 -215 127 -173 88 -50 221 195 -172 -126 -31 41 -47 -31 71 133 -52 -75 -89 85 23 -68 -153 71 86 -7 -5 -70 83 -44 23 -51 -193 -52 239 186 46 -18 -82 -187 -280 -456 624 877 -385 -280 -344 25 67 -17 161 65 140 -117 -255 6 -61 94 93 90 -61 -86 -61 41 75 -129 -40 81 64 -11 -121 -45 169 -12 -77 -136 -42 82 198 136 -84 -219 -143 -57 -111 611 -117 -281 -49 -214 16 168 204 -139 -160 37 7 -44 -26 -79 136 83 -8 99 -221 -59 -7 -92 64 208 11 42 -173 -78 101 -137 -149 81 260 103 26 26 -187 -235 -341 -205 1139 182 -369 -124 -189 41 -16 203 52 75 -180 -129 -39 110 -21 9 108 -105 67 12 -282 230 -9 -90 202 56 -68 -51 -15 -58 -68 -74 47 117 139 189 -88 -88 -208 -253 -611 903 950 -494 -272 -285 89 -60 72 41 211 -52 5 -31 -166 -54 -2 153 69 -27 -92 -45 66 62 -69 -153 41 116 54 -69 -9 -53 -28 -38 -199 287 225 136 -33 -207 -190 -264 -478 981 822 -559 -170 -259 -167 -2 270 7 266 16 -118 -104 -222 -76 72 287 63 -13 -65 -136 -99 7 98 -18 117 52 -92 75 -13 -123 -82 -176 175 111 214 10 72 -169 -245 -496 -54 1352 -1 -452 -169 -203 15 14 168 94 -54 -19 58 -111 -64 -21 38 204 -41 -105 -58 -13 46 -19 -16 -52 155 -61 -10 59 30 -36 -124 -83 26 -11 180 199 113 -71 -400 -167 -506 917 801 -495 -260 -249 74 44 130 4 49 -15 12 -78 -91 -2 123 11 44 -49 -165 -43 97 20 -52 129 85 -10 -155 15 -151 19 11 53 166 46 -12 -6 -124 -352 -424 577 1094 -379 -379 -279 -23 35 136 156 76 114 -245 -7 -172 142 35 96 -18 -61 -62 -13 -19 -88 59 49 185 44 -157 -201 14 -52 32 -7 331 154 -88 -229 -264 -229 7 875 -257 -173 -109 -160 95 -53 79 14 28 81 -56 -83 -35 -30 92 24 99 -162 46 -106 64 36 -98 176 -17 71 -100 -119 -28 -79 -23 45 306 242 -35 -193 -313 -336 -289 1209 494 -610 -235 -131 75 -62 195 58 24 -34 -45 -4 52 -123 -65 293 98 -143 -7 -168 -9 96 105 74 33 13 -126 -14 -46 -39 -148 93 132 274 81 -65 -252 -337 -419 43 1342 103 -533 -126 -224 -57 3 179 123 -4 136 -59 -119 -35 -170 2 146 165 -12 -84 -113 -65 83 46 -47 48 35 -9 6 22 -75 -68 -200 58 247 149 19 -89 -196 -85 -523 -1 1329 -111 -466 -84 -220 159 36 80 63 29 -3 40 -142 -143 84 140 9 -33 -44 32 14 -52 -42 3 73 65 -26 -58 105 2 -33 -150 -78 -9 146 64 178 -8 -29 -86 -161 -510 -42 1311 33 -415 -319 -105 75 19 102 98 65 18 -77 -248 79 15 21 24 173 -9 -129 3 10 -109 -43 91 -6 85 156 -23 -145 -163 -107 -21 86 174 280 -28 -126 -76 -182 -63 -446 641 792 -484 -57 -156 -133 -44 85 204 117 -63 -32 -135 -94 28 5 167 120 80 -247 -62 -146 52 231 -29 112 -23 -47 -35 -43 -87 -87 50 245 241 -96 -104 -172 -160 -430 773 647 -529 -95 -163 82 -60 20 150 -34 99 -17 -69 -100 -145 104 178'],['VivowatchSE-SNC-0004']
['2021-01-21 15:05:18'],[16.0],['132 -133 811 134 373 -250 -818 -1232 -889 -251 1317 1574 1811 737 -1048 -2486 -1752 -1567 178 1334 4039 5508 -3389 -2763 -2735 -1961 -3938 3660 6752 -2771 -1161 -534 -629 274 -3659 -1209 4050 2170 852 -1189 -1660 -18 91 626 733 -201 -951 -217 677 808 407 -310 -1198 -183 279 348 1298 136 -1165 -706 485 498 -56 -99 -259 109 347 615 168 -568 -668 -795 11 823 367 1052 308 -1121 -1031 -522 -306 -451 1754 1222 -204 -438 -1002 -457 -220 207 121 -16 1272 641 -1030 -789 -217 16 157 265 275 153 169 58 -731 -256 -243 -78 389 220 269 369 -87 -579 -621 -362 -197 482 933 562 -189 -949 -896 -835 1428 278 -56 198 159 -149 -527 -392 -84 460 262 581 -522 -26 -194 -211 252 230 -481 68 66 -9 279 -264 272 79 74 -180 -542 -322 167 381 113 486 338 -99 -579 -750 -1277 846 1703 -34 385 -451 -709 -713 -129 20 693 821 -104 -41 -645 -721 480 -11 -205 348 411 -138 -344 93 -115 -123 122 -25 294 35 -640 64 83 223 10 16 -137 -76 -590 -667 1656 -121 -375 -489 -211 243 2 -14 -70 126 175 309 -420 -335 -195 -90 132 555 -124 334 20 -640 -599 -231 526 387 260 -33 -108 -472 -334 43 379 198 372 -157 -480 -997 792 1049 -558 50 -342 -85 -21 47 -183 95 -162 372 217 -14 -424 -41 -56 -342 -68 -217 395 475 164 -422 -332 -75 -170 18 -28 21 45 48 466 -97 22 -195 -364 -696 -279 1489 -206 -560 147 53 143 -174 -679 -280 345 580 382 -92 -71 -317 -466 -208 45 389 248 133 -189 -337 -343 -262 469 543 199 94 -652 -800 -64 279 182 418 244 219 -477 37 1300 -1302 -1618 -1553 774 1693 1837 1471 578 -957 -1693 -2237 -2068 -1468 1044 2831 4848 3083 908 -2638 -3884 -13467 -7077 23950 11811 2088 -1668 -10905 -6301 -1209 2082 3594 4348 2138 303 -1641 -2382 -2308 314 -318 496 772 905 491 115 58 -299 -707 -660 -82 144 161 -3 526 444 -188 -361 58 -457 -80 149 26 118 283 -441 69 -78 47 260 -5 -27 -275 -357 -514 997 231 -163 -188 83 100 -311 -40 -152 -29 207 497 -202 76 -216 -227 -396 -112 182 328 398 -244 -136 -130 -303 -328 240 93 252 69 -115 142 -152 -282 -41 10 -701 727 470 -501 -509 -106 443 -6 -277 -150 246 72 -21 147 -137 -162 13 -402 175 431 -150 -413 241 220 -305 7 154 -144 -422 2 3 258 652 -423 -421 -280 -98 -732 1165 945 -633 -353 -436 288 260 -355 -662 385 136 202 166 80 -175 -544 -341 22 325 155 121 0 128 -153 -404 -132 277 78 -264 -50 248 411 127 -75 -556 -342 -683 387 1508 -462 -318 80 52 -188 -28 -54 -587 -186 599 443 209 -132 -285 -240 -263 -441 154 552 249 174 -450 126 -21 113 -237 -248 -421 30 588 370 247 -108 -443 -3 -627 -138 926 -566 242 299 266 165 35 -184 -833 -607 -170 434 1109 1682 -761 -1581 -1246 53 730 513 424 -265 -85 -101 -102 -360 91 -7 -143 89 373 261 -15 -438 -418 -354 274 881 -422 -139 -19 100 62 -219 -155 -34 -39 -74 602 369 -363 -502 -199 280 -27 43 -95 156 88 20 57 -154 -133 -180 -347 134 401 476 -366 -60 -49 -311 -422 -287 1288 -407 -247 -66 -284 220 37 -134 -285 114 191 167 -177 37 -54 22 -380 -240 489 174 -171 -255 -82 116 253 -232 -331 -145 142 186 -126 33 460 -201 -110 -271 -500 -380 1303 822 -859 -369 -113 167 -105 76 -15 -17 164 -121 -154 109 26 74 -196 -181 -104 263 160 -87 -56 -101 76 -46 -86 110 -60 -137 -258 245 256 70 -138 -126 -141 -52 -199 -524 1416 -132 -549 -404 -203 482 31 52 -469 16 415 89 -411 71 229 -165 -26 -72 -48 138 75 -151 20 74 -113 13 155 -90 -207 -109 -8 173 89 -36 383 133 -761 26 -192 -540 1149 744 -351 -506 -668 326 154 153 -116 -35 121 -189 7 67 32 70 -14 -404 -270 374 54 -19 42 113 3 -192 -264 -233 91 333 194 106 -152 -41 -139 -230 -334 -396 1368 167 -624 -412 -175 197 -13 198 -115 55 154 -166 -57 28 -156 57 90 -148 199 -55 -67 -7 -111 98 84 -308 -204 173 193 13 -27 164 -43 -85 -309 -594 345 1370 -111 -656 -278 -167 34 93 213 -81 129 -176 103 -59 -34 -45 -149 124 -113 173 50 -184 136 -165 8 157 23 -32 -172 -145 -177 296 477 -2 29 -279 -459 -812 443 1624 -161 -517 -217 -371 10 161 58 -72 227 143 -139 -107 -285 -14 251 155 -283 -283 80 122 71 -88 180 -40 -88 -136 -246 -76 268 203 129 113 -211 -123 -116 -312 -481 978 91 -285 -132 -292 38 -145 172 -47 141 -62 37 66 -116 -205 -24 125 63 10 -102 50 69 19 -156 -55 -79 -3 143 99 -166 136 -57 -179 -161 5 -185 365 281 -715 -30 87 161 -55 -130 -95 66 221 -63 25 2 -196 -117 -91 83 122 -36 130 -67 53 -42 -188 -63 17 -81 4 85 369 -68 -141 -158 -394 -393 -136 1340 -112 -514 -199 -256 46 106 57 -76 5 89 15 -47 -94 19 116 -274 -73 189 -112 -43 -54 137 150 -8 -203 -387 94 104 147 -110 156 272 -60 -509 -226 -442 727 921 -586 -262 8 -122 -168 -8 36 255 125 -83 -92 -112 -106 -8 11 146 -83 -31 16 -215 281 -93 -149 -187 107 231 -138 -143 -79 68 202 45 9 -71 -219 -345 -699 1140 720 -535 -64 -283 14 -216 140 28 265 -100 -367 316 167 -253 -418 158 102 152 -67 -162 407 -17 -81 -306 -137 237 -58 9 -61 -137 -197 438 156 69 -287 -362 -624 427 1322 -464 -214 -20 -157 -145 -169 123 62 -34 204 -67 -77 120 -149 -233 -72 -17 68 203 148 -84 -300 117 -64 -106 142 9 53 -252 -245 193 160 192 61 -67 -422 -180 -538 256 1220 -375 -266 -157 -350 -25 197 94 -74 -214 292 223 -118 -407 26 232 83 -217 -239 252 211 -78 -235 24 150 -209 -134 -22 -126 200 343 -30 -154 -105 -263 -320 -685 1575 441 -765 -138 -354 -28 -207 448 79 98 -62 -132 66 -353 -32 167 30 -66 -14 -106 5 112 141 -182 42 -54 -40 -260 1 148 85 41 80 32 -103 -56 -405 -768 810 1205 -695 -290 -99 6 -82 47 -117 -8 68 47 -59 125 133 -139 -289 -372 190 216 292 -9 -236 24 78 -60 -129 -235 132 -29 158 121 85 -84 -32 -60 -333 -866 474 1491 -449 -354 -495 -41 -22 153 7 -168 222 181 -60 -213 -182 -14 142 -39 110 -84 51 37 -158 -183 131 213 53 -246 -174 -170 38 87 164 343 0 -69 -423 -460 -423 1362 566 -545 -125 -394 -16 91 0 41 76 100 -50 -120 -7 0 -105 -142 52 17 213 -42 -208 119 -2 -153 -103 -22 -57 -44 157 245 126 -336 -176 -149 -292 391 684 -342 -222 52 -118 -145 75 170 -107 -43 -18 178 84 -126 -388 226 -153 50 -51 33 306 -73 -280 -119 116 -62 -42 104 8 120 98 -236 -44 -246'],['VivowatchSE-SNC-0004']
['2021-01-21 15:05:55'],[16.0],['-39 -46 95 -61 -41 -258 340 124 93 -218 81 -80 -78 -154 -254 537 59 -94 -157 103 57 -247 15 -402 -64 282 394 354 -74 -110 -273 -510 -567 -309 1162 1628 -462 -910 -459 -458 254 48 259 385 21 -6 -282 -37 45 -274 -17 35 233 153 -141 -176 77 50 62 -59 -257 -79 -39 122 288 81 136 -506 -323 -459 796 787 -537 -136 -168 39 -287 161 203 132 -51 -177 -6 109 -334 -174 444 284 -242 -472 330 -84 -78 251 -277 198 -140 134 -36 -68 134 93 -363 -208 -85 8 734 -544 84 -72 -259 -254 299 295 -197 -26 87 204 -240 -387 33 138 2 177 23 -77 -14 89 -327 -272 213 -19 73 236 82 19 -139 -308 -273 -916 687 1701 -632 -588 -300 -118 49 -19 215 294 -109 -32 -50 -68 -283 35 122 188 -10 16 43 -403 -150 33 11 318 14 -91 -64 -43 -50 -288 -326 246 1084 -119 -466 -327 -146 127 186 -21 150 120 -121 -76 -87 -71 -277 126 326 149 -275 -262 142 -35 50 -71 -361 208 452 140 -362 -9 -127 23 -443 46 638 -29 -97 -343 -427 65 317 -98 -2 7 170 -126 -232 -136 105 239 194 -316 7 321 -88 -258 -91 -2 -13 165 -44 198 166 109 -480 -445 -648 491 1463 -144 -509 -425 145 78 -57 -223 325 287 -214 -110 -89 210 -235 -159 35 102 47 -110 142 63 69 -318 -347 -27 184 438 132 -188 -160 -147 -6 -771 -192 1673 164 -580 -348 -464 124 230 188 -245 301 74 -58 -193 -396 222 90 48 -255 -56 194 90 -182 -78 150 78 -112 -316 -92 220 134 313 50 -217 -112 -288 -764 -135 1684 458 -694 -669 -52 168 146 83 -174 203 89 33 -205 -96 30 -76 -71 -137 242 119 -62 -19 -126 -76 137 56 -260 -103 101 71 401 -94 -308 163 15 -148 -715 784 219 -228 -475 -193 481 -261 -146 370 185 -207 -129 -17 -38 -18 142 -131 -88 84 -67 11 -79 -2 259 -40 -146 -322 -39 143 126 224 -137 102 -91 -239 -347 -658 1347 484 -679 -373 -95 -59 225 54 -210 124 39 43 -90 -89 -247 161 281 56 -288 -263 -46 275 121 43 -214 -118 200 -56 -75 -225 110 -97 66 22 237 326 -467 -167 -338 -660 967 1037 -768 -248 -40 -174 6 131 163 35 -316 14 87 -61 -86 56 128 52 -7 -330 -151 237 195 110 -327 -52 185 -60 118 -576 -163 349 -116 -193 671 261 -219 -577 -352 -145 218 1589 -368 -733 -102 -97 -254 180 533 -58 -149 -440 125 231 -30 -31 -174 191 8 110 -305 -299 336 -68 96 -34 -298 -38 301 106 -247 -516 166 25 204 31 117 98 -288 -167 -37 -844 410 1330 -427 -423 -229 22 82 -213 235 74 -57 -154 -120 301 153 -266 -180 135 39 4 -105 -48 95 237 -312 -291 439 -150 -21 125 -66 -116 -388 180 439 47 -169 -427 112 -701 128 1481 146 -564 -525 -39 -66 -5 165 162 -154 103 -116 -227 134 -130 23 21 -61 17 -58 252 33 -384 -68 160 136 -5 -134 229 -267 -248 -113 -38 388 195 -119 145 -237 -365 -459 -97 1137 -331 -88 -218 -315 35 -5 55 -19 202 19 -149 10 -152 17 96 -298 140 137 -256 -103 136 -18 -48 -96 95 149 74 -345 -405 168 232 269 -117 -95 149 -156 -439 -802 417 1494 -10 -787 -289 206 40 20 -177 186 229 -101 -100 -182 -3 95 108 -165 -92 -96 127 -105 99 -140 33 295 -59 -274 -391 164 200 -140 -158 566 41 -29 -494 -491 -405 617 1443 -713 -492 149 8 -457 -239 508 196 6 -21 -271 -55 78 47 11 -220 111 47 -30 -218 67 352 -163 -217 -156 111 -146 -80 151 228 129 -32 -246 -352 -522 -119 1481 369 -769 -426 -145 95 135 169 -69 -38 66 -297 -74 210 112 71 -478 49 104 37 -11 27 122 -109 -20 -381 -170 190 -111 249 461 -124 -139 -488 -142 -568 689 1176 -605 -241 -212 -330 1 355 41 -98 -224 113 261 -15 43 -317 -211 108 0 272 172 -142 -130 43 -121 -16 -18 -296 196 100 157 278 -208 -85 -529 -254 -236 750 1141 -715 -247 -68 -147 -230 348 3 24 208 9 55 -161 -241 -215 200 143 92 -160 92 50 -179 -145 -143 56 19 44 -198 74 447 -36 -347 -181 57 -206 -501 947 665 -488 -476 -389 166 377 -153 79 185 -112 -25 -153 70 -105 -12 -163 147 123 -46 -120 90 -204 178 173 -434 19 93 127 -170 -81 322 -63 -165 -209 56 -386 -56 717 -204 -120 -123 -376 -108 312 94 -3 -418 112 269 -115 -125 -57 15 -4 5 -10 -88 -60 304 -223 -132 82 -5 130 -253 -248 17 112 160 136 -89 52 -111 -469 -728 780 1176 -391 -456 -160 -271 152 140 -119 300 -264 205 -27 -185 -13 -114 159 -89 -50 -37 102 30 19 16 -222 -10 164 -66 -34 -86 -90 105 326 -124 6 0 -54 -367 -688 1033 170 -246 -123 -399 -103 -92 207 235 174 -376 -25 133 -42 -221 -43 304 16 -206 -33 -74 73 363 -80 -77 -344 -107 269 -11 -32 4 176 -11 -13 -37 -223 -388 -268 1354 466 -576 -349 -578 441 -38 -39 204 82 207 -160 -123 -374 -77 355 135 30 -131 -193 144 214 -18 -262 -88 174 145 -150 -171 99 384 101 -3 -357 -331 -478 674 1048 -661 -53 -147 76 -204 -70 169 117 102 -51 56 -60 39 -156 -100 -113 260 205 18 -11 -85 -250 -13 144 121 -120 -60'],['VivowatchSE-SNC-0004']
['2021-01-21 15:06:55'],[16.0],['-95 -350 -51 371 278 8 -216 3 130 75 -23 2 213 18 -40 150 -199 146 0 83 218 234 -102 7 -139 -130 -329 222 916 -334 -156 -103 -258 157 81 29 147 -16 290 16 -216 149 202 -101 -72 98 75 20 -74 267 271 -17 -186 2 -109 -54 152 333 75 0 -40 165 21 -230 -589 -4 1436 120 -284 -234 -197 176 87 141 -166 223 253 -71 -253 -146 290 270 -231 -214 255 235 -77 15 96 32 105 -143 -169 56 88 293 48 264 22 41 -419 -300 -568 439 1726 -77 -371 -402 -25 -69 -79 -60 291 502 273 197 -285 -359 -254 99 93 187 207 225 27 15 -1 -267 -210 165 81 46 -43 -118 393 546 -287 -42 -350 -204 -375 311 858 -341 103 -76 -196 -300 172 204 -57 68 265 65 -8 -37 -141 53 191 -131 -139 188 74 363 48 -99 60 -179 -83 -31 -70 -105 144 360 233 162 -40 -41 -613 334 1182 -831 -902 -591 448 779 1019 1052 750 -100 -1588 -1671 -1725 -730 303 2541 2878 3674 1136 -1047 -4866 -5834 -8902 2931 14065 6388 2680 4247 -5209 -6255 -26816 -7278 30046 12891 3382 -6288 -6501 -6885 -3645 1300 1995 3029 2808 1577 -58 -589 -1549 -1602 -1142 -124 259 1087 970 951 154 -98 -772 -567 -647 -183 363 732 348 462 -189 -392 -457 -117 -3 530 179 128 -369 -185 -186 -426 1171 -37 -325 -207 154 131 -194 40 226 83 -33 14 26 -98 96 146 -169 -97 104 217 79 -23 17 -101 34 -103 68 -183 92 403 109 33 -146 -90 -279 -278 -127 1511 241 -774 1 -281 140 -111 130 201 6 -83 133 216 31 -255 -250 295 -129 -174 133 365 33 127 -291 -185 161 -89 6 -160 352 -24 172 231 50 -185 -406 -709 3 1781 289 -535 -506 -228 324 51 -27 -45 -27 176 373 -98 -79 -115 -82 -124 116 56 123 165 -124 131 75 -64 -131 -52 22 -103 -99 267 467 17 98 -455 -321 -362 -342 1713 -265 -569 0 -249 -89 16 67 220 179 26 -77 -194 115 -118 87 -50 -6 128 15 80 -37 -87 67 83 -24 -216 136 -285 -22 426 391 -95 -294 -406 -78 -336 418 1616 -376 -497 -406 -201 95 138 62 231 63 -13 138 -373 -152 -115 91 200 174 37 -99 -257 213 168 69 -434 -224 164 247 148 70 265 17 -312 -267 -241 -28 1190 -136 -364 42 94 8 -196 -65 -64 -99 118 219 -51 219 -101 -102 6 -260 -26 37 176 313 -175 257 -70 -233 -132 24 -213 252 314 80 32 120 -189 -475 -836 1050 1114 -652 44 -453 -4 29 -97 -21 309 -13 250 216 -215 -467 -559 243 480 535 113 -143 -403 -97 -15 -31 57 129 340 -119 -159 -34 146 165 107 -488 -429 -442 1246 1071 -648 -414 -198 14 2 85 66 167 18 12 -73 -56 -53 49 -19 -29 -31 -29 -86 179 262 -94 -19 -6 -223 -128 -199 250 156 353 200 -192 -328 -349 -641 236 1821 -617 -657 -252 24 59 -11 165 32 115 -99 -16 -53 -76 -24 120 -91 7 103 -8 74 24 -76 -36 -65 5 3 -140 70 440 -1 42 -104 -373 -656 328 1207 -514 58 -252 -243 156 11 -13 112 125 -281 100 41 25 161 12 -89 -228 -270 187 247 284 147 -116 -359 -119 -217 7 283 382 354 -175 -255 -354 -660 -61 1434 -289 -291 -114 -205 33 -26 82 -19 20 23 242 -125 -161 61 32 -39 3 140 54 -57 -199 -292 277 321 30 -176 -333 -13 66 307 84 -39 -134 -169 -656 481 587 -490 -190 -235 226 76 92 -126 -68 15 113 98 -178 4 86 18 -8 123 -188 -105 105 2 53 123 -124 -115 -44 -41 40 404 -42 -133 -327 -53 -507 116 898 -231 14 -294 -122 -139 -154 29 128 -1 182 329 247 -131 -403 -277 -391 -406 147 759 1229 431 -825 -909 -645 164 341 281 311 446 140 -224 -644 -314 -536 158 900 -265 -54 -102 24 -113 132 119 142 229 88 -549 -437 -515 83 381 760 760 694 -154 -381 -1428 -1345 -1249 -30 621 2214 2510 2213 1210 -1289 -3530 -5279 -3720 -2435 2964 7289 11485 4946 4015 -12808 -15763 -32000 20260 32000 221 -4358 -9516 -5696 -3439 -10157 -2733 10855 7229 5422 -70 -1872 -4243 -4187 -2705 83 1660 2070 2545 1029 352 -492 -848 -1596 -615 -611 211 -185 826 1849 407 -684 -356 -772 -241 -86 116 225 219 307 -8 -212 77 -102 -148 81 -3 -122 -73 -7 275 184 -222 -348 -25 -53 -45 0 48 476 189 -254 -156 -357 -355 -387 1111 852 -608 -175 -264 -92 -223 318 87 176 -7 -118 44 -252 19 63 -78 -41 84 -43 -12 96 5 -69 -140 3 -285 108 347 273 149 -457 -300 89 -419 -295 1267 294 -722 -66 -142 35 37 -66 -76 161 89 14 -71 -97 2 -137 -156 81 10 191 78 -121 29 -108 -63 10 -232 19 76 325 218 -37 -199 -331 -938 188 1502 91 -377 -343 -319 19 37 100 177 -54 96 -53 -176 -63 26 -24 -20 75 -96 -27 31 113 -34 -52 -70 -118 -158 92 40 209 302 -213 -63 -228 -359 -714 942 1099 -499 -290 -139 -79 -115 30 -99 242 66 90 39 -92 -280 -14 -19 -23 31 95 59 52 57 -185 -22 -22 -129 -99 -69 149 210 204 -48 44 -256 -328 -570 -295 1633 -208 -429 -102 -257 -141 -210 167 -14 185 180 317 -205 -541 56 278 82 17 -288 -160 189 392 236 -198 -168 -243 -162 -144 -30 308 345 170 -47 -166 -480 -485 -615 1209 1090 -449 -520 -485 -40 -105 272 332 22 -75 -322 -88 192 -19 74 50 -149 -84 2 41 83 27 -71 -73 -131 -111 148 12 207 -27 -257 114 -132 -497 -285 1064 -236 -240 -29 -65 240 -242 -135 -140 -109 26 409 216 68 -160 -365 -454 -340 387 511 280 20 -251 -227 -201 -109 -75 44 421 311 -214 -253 -199 -56 -328 610 -32 -404 -69 -80 122 289 432 82 80 -421 -459 -556 -423 138 502 1042 921 1103 -530 -706 -2030 -1416 -1868 126 997 3386 2424 3294 240 -1657 -5581 -5771 -6111 -732 6052 8391 12066 8988 182 -18719 -30965 -32000 32000 32000 -8963 -13767 -27211 -14429 -7389 10132 13604 19471 -4165 -11684 -1187 -77 -247 -880 -97 -278 829 985 1235 251 19 -1058 -513 -1189 269 1102 64 -123 50 -221 -128 0 31 -10 161 62 -136 -118 28 -258 196 130 74 -98 217 179 -67 -357 90 19 -261 54 -51 64 184 184 -104 -188 -73 -720 -329 1528 366 -557 -378 -139 -30 -92 241 138 20 -32 22 -151 -90 -159 11 189 97 -22 60 -105 -111 -94 -30 150 5 149 -204 -203 -73 276 206 -111 -107 -176 -360 -565 1327 556 -610 -183 -312 58 86 -48 162 207 50 8 -391 -37 -96 44 110 28 -68 -85 189 113 -127 -122 -170 -78 -37 98 -38 227 332 9 -286 -486 -347 -449 1391 584 -785 -43 -64 196 101 -162 -218 -44 115 134 99 293 -270 -205 -194 30 -125 170 214 -54 -113 -30 -93 -95 37 -226 -12 187 437 21 -319 -262 -199 -637 988 867 -431 -227 -587 186 105 177 -357 393 94 63 -192 -374 335 -251 48 -77 -114 256 39 -132 72 -32 -118 -185 103 -182 -29 294 375 -125 62 -424 -316 -486 200 1429 -427 -421 -286 39 149 -108 -320 340 416 55 -224 -314 15 162 -22 36 -54 -61 110 342 222 -54 -160 -223 -601 -426 -143 190 816 1226 549 -54 -908 -1560 -1755 -1211 952 228 2227 2105 2252 520 -1185 -3932 -3841 -4938 -1574 646 10509 12403 6483 -2976 -10035 -23332 -16602 25207 22038 10331 9241 -1601 -25310 -13763 -683 6143 10229 7446 3852 -971 -3106 -5637 -4192 -3185 1698 2916 2507 1847 1147 -175 -1051 -1721 -1187 -627 27 609 571 736 597 -9 -340 -514 -306 -187 -100 315 426 -130 117 -79 -152 -15 124 335 327 9 -308 -711 -611 -989 1281 1330 -169 637 70 -453 -465 -1353 -943 -777 458 1031 2113 1349 1302 -874 -1448 -3235 -2489 -2287 988 2798 5661 6328 4830 -1623 -9847 -19840 -24193 27764 21333 988 -1056 -11231 -14949 -10042 4929 7440 9080 3181 957 -3067 -3995 -4124 -1361 362 2653 3116 2237 343 -1516 -3241 -3218 -1710 1462 3119 4984 3849 1409 -4927 -10249 -14718 9407 22505 4060 -3193 -7556 -3809 -3905 486 1474 2016 4044 1489 -1241 -1156 -942 -2275 -777 217 988 836 1166 512 -85 -627 -663 -558 -164 9 259 378 268 88 -132 -140 -175 120 -100 2 167 50 -221 -72 45 -114 96 455 16 -230 -289 -94 -315 -355 1153 -190 -187 -184 -223 36 -88 155 209 70 -65 -264 -118 143 104 114 98 133 -473 -133 171 -170 189 116 101 280 -254 -354 11 18 -215 141 309 278 61 25 -497 -519 -578 1331 704 -678 -61 -254 68 32 -26 -186 204 190 -61 -144 105 -102 -71 -3 105 207 -246 -209 73 108 173 50 -130 -139 -164 120 57 -46 -89 67 170 25 154 -567 -116 -704 1074 926 -757 -193 -187 -75 71 106 -54 66 -61 -34 63 60 -98 -82 -54 -64 47 -18 94 88 -65 -39 -63 -55 -61 116 -158 -122 188 136 193 -22 -385 -183 -463 49 1221 -140 -291 -76 -370 217 148 -127 -108 98 38 182 0 -144 11 -246 -34 158 -150 278 278 -290 -32 168 -76 -242 -120 -74 199 155 241 73 -268 -2 -293 -299 -663 1103 1020 -566 -192 -320 -327 51 368 44 24 -99 135 -201 -59 84 -22 128 -146 -124 72 -86 124 112 -129 38 24 -98 62 -231 -105 9 176 170 98 2 -302 -263 -493 925 -24 -533 -27 2 33 -75 125 -30 -28 -39 -46 20 1 -138 57 -52 162 -59 -86 -38 47 -21 157 89 -171 -249 -89 237 61 -107 235 140 -198 -121 -82 -617 77 1662 48 -1018 -288 103 102 -138 257 -105 -176 223 -94 -109 196 -164 -93 226 -359 156 28 58 51 -99 18 -80 92 16 -105 -89 -308 160 314 142 138 0 -225 -444 -686 -174 1796 212 -477 -160 -385 121 28 229 -259 113 82 63 -30 59 -282 22 78 -34 -137 37 54 -89 178 -68 0 -152 81 -96 -213 28 212 8 219 -25 -50 -179 -319 -579 646 1170 -514 -144 -285 -319 167 -130 26 286 70 -30 -82 -177 -84 -88 167 14 21 -36 -55 19 182 -122 -48 -119 18 -65 55 -28 176 282 -36 -202 -310 -207 -460 1483 402 -735 -174 -330 87 208 76 -99 77 -97 116 -145 -153 317 64 -303 -45 89 -37 27 110 -1 -5 -81 91 -202 -150 -102 168 191 88 140 -47 -98 -293 -584 -337 1475 465 -645 -239 -192 103 -116 -81 303 -57 -140 108 49 -28 -236 128 -232 82 95 -75 64 -55 115 36 -173 -102 13 29 -27 -65 20 78 67 84 -13 -337 -107 -404 310 691 -444 -142 -347 -99 53 198 176 -24 -98 -199 75 0 79 -186 34 13 34 -9 -160 -1 69 22 53 -133 -7 49 -186 -67 66 58 167 -9 90 -98 -192 -715 -366 1685 294 -623 -305 -276 24 165 181 147 -153 -168 353 -69 -24 -134 -155 137 -19 -33 89 -116 -129 216 -8 56 -30 -364 -115 208 -31 -89 186 206 -5 -143 -233 -155 -721 351 1464 -557 -386 -291 -140 64 148 26 -44 16 22 29 14 -198 -130 163 29 83 -244 -34 191 104 88 -138 -115 11 -123 -60 48 -112 -31 444 27 -65 -229 -288 -473 7 1528 -14 -544 -125 -294 33 -150 226 43 85 44 -81 -87 69 -58 -241 89 65 -22 -19 33 -56 160 -86 -262 -109 115 0 -94 147 294 62 -206 -323 -71 -672 500 1334 -467 -432 -126 -121 -8 3 74 114 138 -29 -42 -129 -204 -58 183 38 -205 93 69 -124 121 -82 -3 -101 -122 48 -81 -50 302 368 -69 -267 -400 -251 -443 1089 834 -648 -225 -362 -47 -15 272 82 -133 189 -13 -112 -48 -215 -60 52 103 144 -78 -37 -125 4 233 -6 -259 -86 -20 -39 102 139 459 -103 -201 -435 -159 -608 223 1757 -151 -437 -421 -156 154 -71 -103 260 65 77 37 2 -97 -276 3 -75 169 105 -3 66 10 -108 -130 34 -53 -63 65 22 -47 85 177 -112 126 -284 -95 -532 179 866 -432 -178 -292 -123 93 118 24 -76 168 -96 -89 -9 -9 -111 54 166 -203 78 -123 -6 13 233 -99 -7 141 -266 -104 -154 84 338 185 -35 -202 -293 -342 -430 1455 533 -797 -156 -320 119 56 115 34 4 -128 30 68 40 -55 -98 -37 53 -16 -249 269 28 136 -120 -130 -185 -48 3 -35 146 116 210 -18 -190 -369 -636 -32 1666 187 -697 -272 -350 92 174 213 -25 18'],['VivowatchSE-SNC-0004']
['2021-01-21 15:08:41'],[16.0],['-3 257 79 21 -159 -166 -119 55 203 350 -71 -163 -321 -134 -45 137 283 176 55 -91 -370 -248 -387 355 1267 -435 -395 -17 -268 202 36 218 133 -289 -83 147 154 66 9 -266 -43 120 14 165 -119 81 2 9 -182 -55 -173 -94 250 294 140 -94 -13 -203 -341 -766 1141 856 -367 -304 -172 272 197 240 -393 -107 -85 -227 162 130 203 547 139 -83 -517 -715 -579 -226 611 1015 1143 132 -292 -565 -1657 -1041 1329 -14 668 2311 97 -549 -3315 -1174 2224 1635 -898 -737 1053 -940 -904 2020 434 -697 -1459 -512 120 328 793 458 71 -403 -344 -527 135 97 258 250 50 -121 43 -61 -230 -271 121 381 353 -160 -110 -250 -322 -314 225 1611 -42 -520 -163 -185 36 -197 38 345 395 168 -229 -225 27 -59 40 156 126 -65 -69 22 -152 115 165 44 108 -64 -293 -51 -11 -44 346 284 146 11 -324 -353 -371 -401 1520 766 -609 -360 -322 206 115 -60 -27 494 98 -92 -90 -63 -151 57 184 -32 -18 188 -21 -73 -37 -93 50 302 -29 -101 -156 22 -51 -173 413 415 -7 -72 -473 -175 -419 -18 1620 -131 -456 -85 -238 -139 145 199 72 184 62 -162 -100 179 -229 36 -15 200 58 123 -220 -4 -17 -49 229 65 -161 -33 -127 62 139 254 107 -72 -226 -89 -436 -83 1345 0 -272 -234 -181 -30 139 254 35 20 -26 -32 44 10 -247 117 248 63 -31 -187 135 136 54 -38 -388 370 -6 -241 -117 125 153 309 -141 -232 2 -38 -547 85 971 -249 -93 -436 -205 87 274 97 -177 34 152 190 -157 -246 -23 -34 315 45 -41 35 -199 237 101 107 -145 -146 -237 -82 361 100 175 228 -11 -213 -354 -403 -368 1593 724 -667 -319 -338 6 -24 198 67 52 173 -38 73 -163 -208 120 106 -131 -101 306 60 -41 -122 3 143 20 71 -15 -253 -132 130 203 151 283 69 -220 -581 -302 -543 1253 1264 -930 -237 -292 74 106 58 -137 248 167 94 -160 -197 52 84 -29 -135 38 134 76 -6 -191 -97 290 75 -87 -122 -7 -173 160 -98 282 526 -75 -342 -169 -424 -486 1886 443 -772 -301 -44 -305 170 360 -9 -140 -83 312 -201 -19 -205 66 104 7 -145 136 59 -22 8 -21 100 -62 51 -89 -150 -18 158 233 186 -143 76 -403 -141 -553 488 1381 -343 -497 -287 149 152 -148 3 232 41 73 -44 -148 -315 158 124 145 -52 -95 6 196 156 -301 -214 -35 147 52 2 -74 348 114 -27 -319 -465 -559 398 1468 -89 -310 -236 -334 -48 73 104 177 237 -113 161 -210 -343 209 -94 -61 106 94 98 -167 4 266 -137 -82 -182 -73 -6 237 170 167 31 -43 -184 -320 -788 56 1850 -346 -597 -477 -43 195 -54 62 12 207 -1 18 -210 5 99 31 9 -206 89 -46 133 -26 12 37 -43 44 -329 29 91 49 -150 85 432 63 167 -488 -455 -658 518 1727 -448 -552 -92 -186 -57 -85 271 176 70 -29 -137 -40 -31 -71 18 -54 234 -43 -63 129 -187 53 -80 -45 94 87 211 -42 -425 -395 106 321 397 -98 -68 78 -336 -349 -875 1343 996 -572 -309 -472 -108 28 299 90 74 51 -250 14 -7 -83 -27 124 175 -73 -191 -81 0 93 114 -211 9 203 -45 69 -94 -79 -40 -166 -31 118 548 -222 33 -185 -248 -430 -590 1619 84 -594 -300 -80 130 -111 110 -63 95 80 -42 51 -62 -98 -8 -97 11 115 -67 -35 146 -29 -187 -20 154 36 99 -126 -212 -46 -38 127 393 -2 -20 -300 -157 -679 -33 1617 37 -571 -301 57 23 -12 9 74 109 97 10 -167 -63 -160 30 -7 174 111 13 -153 -154 24 62 -2 -33 46 -16 -69 -263 144 384 -70 -219 -209 168 -491 76 630 -337 -21 -120 -138 -142 53 218 -58 42 125 13 -287 -96 133 10 95 -70 -29 50 14 -107 -81 68 138 -105 -60 -59 -7 -57 -91 -164 404 454 -102 -185 -518 -694 90 1678 114 -578 -455 -218 119 242 40 -136 183 -117 -97 -143 176 24 42 -208 -90 127 101 -145 -156 329 106 4 -168 -207 78 10 -61 -214 129 19 463 -110 -125 -299 -257 -258 -24 1591 -27 -648 -270 -179 -93 150 97 101 199 -218 3 5 -89 -292 179 231 -36 -55 -224 127 53 -161 67 77 -104 -46 240 -92 -125 28 -208 -55 154 393 -205 199 -87 -238 -897 -360 1604 -216 -246 -344 -186 31 -33 -110 94 233 62 31 -163 -37 -223 -248 440 255 -127 -463 18 379 -85 -68 -143 163 7 107 -112 -152 -130 28 104 -105 230 169 83 -367 -273 -680 -120 1661 -380 -340 -298 -206 71 -140 16 267 204 -36 -92 -210 11 -200 180 -66 -50 145 -21 42 -75 -228 96 249 -147 -300 -33 229 -61 -75 108 194 17 -21 -311 -331 -577 1144 867 -680 -117 -355 25 -94 -1 142 199 69 -57 -162 -1 -131 -82 154 -147 118 118 5 -136 -174 192 151 -218 -112 -174 -19 148 291 40 -129 -38 -254 -177 -767 721 1210 -445 -373 -324 -69 122 -96 54 217 -58 -78 87 10 -139 -180 65 0 -119 217 88 -156 6 -167 158 192 -147 -208 -342 137 333 217 153 -217 22 -233 -471 -842 946 1588 -943 -410 -173 -65 111 -17 46 183 -118 126 18 -172 -80 114 -85 -266 57 221 125 -138 -130 -32 44 23 -183 -54 -72 117 188 130 -84 48 -224 -149 -611 -387 1576 -145 -300 -331 -469 33 116 -24 265 185 -407 150 -2 -173 -134 -180 87 390 -168 -271 -76 149 161 -34 -55 -277 148 -37 -154 26 -46 163 201 79 102 -246 -810 -707 1352 1170 -612 -641'],['VivowatchSE-SNC-0004']
['2021-01-21 15:11:52'],[16.0],['772 -628 -290 -211 -29 -172 306 67 91 208 -236 -225 123 29 -143 27 132 -115 -10 101 118 73 -228 -308 -49 228 96 175 -22 193 21 -436 -446 -569 1100 845 -497 -317 -138 -42 -209 -1 216 119 173 59 -238 -5 -232 42 355 -177 -99 31 267 106 -33 -243 -209 -76 163 177 238 369 -409 -354 -67 -579 158 1337 -471 -257 -160 -228 19 148 62 -6 -20 -164 200 -78 -29 230 -54 -255 -170 297 190 -289 -80 -92 62 -14 94 -150 40 351 218 -317 -223 -515 -188 1379 97 -261 -247 -295 -12 -152 160 231 48 0 41 38 -228 -372 285 237 34 -322 114 189 -19 -124 -59 32 -136 84 -189 311 341 -115 -83 -264 -330 -701 1109 1118 -808 -397 -126 43 -60 136 100 -126 105 -37 104 -90 -212 31 78 27 -243 6 129 183 -14 -266 -20 -32 -66 -35 11 160 27 185 -106 110 -256 -483 -751 562 1642 -245 -380 -466 -398 51 400 335 -51 -278 86 74 -81 -144 18 199 -46 -19 -245 291 -80 0 -7 -187 116 114 -86 -297 30 170 -1 37 187 189 -306 -228 -405 -662 1574 273 -603 -234 -310 -25 118 70 142 -46 -8 52 -96 -1 -292 237 210 -34 -133 -114 -161 188 202 -314 195 268 -81 -51 -344 -402 335 326 9 62 47 -69 -203 -18 -737 -260 1676 85 -334 -275 -319 138 85 65 37 -51 1 118 47 -255 28 217 -69 13 -224 143 -158 227 -62 21 168 -263 0 -17 78 9 -165 -169 350 298 -141 89 -304 -268 -572 360 1283 -183 -280 -349 -318 220 210 128 123 -165 -20 -63 108 31 -240 63 184 -93 -29 -72 -126 167 -50 40 33 28 -16 -26 -69 -82 -71 126 -53 298 19 -126 -192 -118 -424 -74 1069 -436 -62 -260 -156 -34 112 193 146 78 -350 1 -15 180 -52 -130 112 57 -90 -62 -81 144 194 14 -144 -139 16 37 -59 85 -99 216 91 7 97 -249 -553 -540 1293 882 -720 -316 -382 37 279 164 151 -277 0 125 56 -72 -153 213 -97 36 -129 -9 113 -42 -1 -45 101 -72 95 4 -92 -116 60 7 -157 251 244 -14 -278 -154 -780 300 916 -353 -216 -381 159 85 -152 142 -13 134 120 -28 -235 -37 70 115 27 -154 -17 93 79 -10 -82 -43 43 96 -59 -99 7 -275 104 222 389 -4 -185 -270 -92 -891 389 1583 -259 -429 -419 87 -56 -7 184 -58 176 -69 -8 -11 -128 59 -47 -105 45 -99 3 298 -28 -8 -179 -192 77 137 -164 -230 130 366 321 -245 -165 -237 -287 -639 1140 995 -663 -160 -300 -206 -174 449 147 -29 -142 27 -7 -172 -12 89 0 -11 18 6 -54 -43 90 75 63 -98 -341 96 -10 119 391 134 -191 -573 72 -420 8 1363 -635 -350 7 -33 -53 -80 216 -26 -85 -165 166 177 -30 -351 -79 113 63 -56 99 159 -19 -164 -25 -161 -11 31 128 55 32 245 -158 -156 -154 -618 -228 1512 -238 -522 -294 -31 43 -30 133 -190 151 -20 -18 -68 112 -80 22 -46 -147 -93 99 258 -96 121 -77 -234 140 -173 -175 15 129 343 35 -115 -292 -62 -688 148 967 -552 -118 -40 136 -273 -179 252 63 200 -14 -96 -60 3 41 -44 -267 -93 228 236 -75 -298 235 88 -250 -154 52 -28 68 26 184 166 22 -16 -583 -431 -354 1687 689 -1072 -260 -167 82 -86 6 122 273 -141 37 -42 -78 -34 -194 138 162 -18 -368 32 133 117 -162 -112 207 -33 76 -254 -212 132 132 112 185 -23 185 -385 -427 -718 118 1635 -171 -651 -369 -47 -123 331 -335 -14 415 41 -8 -212 -113 79 -113 29 198 -157 -56 213 64 -173 -176 167 -27 58 -170 -130 -90 -23 280 -7 175 -131 -191 -182 -552 -131 1561 82 -765 -213 -53 141 -69 37 44 208 -215 -10 59 -218 2 130 -15 22 -108 17 8 -122 -24 63 133 40 -51 -79 -80 -249 -18 236 59 205 -88 -51 -213 -49 -656 381 576 -380 -128 -139 -29 -136 113 54 10 -286 272 146 -57 -164 -233 120 200 -47 -221 169 75 19 -66 -41 22 -216 75 -23 -253 -89 596 72 -118 -105 -367 -432 -218 1439 261 -514 -121 -284 -162 55 103 280 25 -270 131 -73 49 -154 -171 85 137 -77 -164 67 202 -135 58 -392 157 13 -80 78 -12 395 -68 -143 -301 -34 -643 997 775 -823 -116 15 -228 -46 296 54 -114 20 -62 134 -31 -292 67 -51'],['VivowatchSE-SNC-0004']
['2021-01-21 15:12:32'],[16.0],['-41 55 -111 -338 -38 34 265 363 173 29 -340 -459 -363 -506 1479 747 -563 -162 -418 284 -259 127 35 102 43 -72 115 -102 -39 -180 187 122 -261 -11 180 58 -13 -50 9 -51 -198 5 178 -28 200 126 113 -193 -406 -292 -461 1427 -102 -399 -357 -247 291 -139 195 -188 194 -33 21 82 -5 -173 -90 18 39 -24 94 73 49 82 -283 14 44 29 -117 -304 -130 388 637 -370 -217 -354 -250 -475 713 1319 -480 -376 -491 101 84 -193 -98 225 252 -203 90 -34 -32 -156 6 12 114 -216 -90 117 333 1 -63 -90 -281 53 25 -67 126 371 -31 -73 -21 -159 -517 -482 1093 711 -459 -308 -221 72 4 18 143 -60 103 -3 -123 -64 -66 259 6 -154 -254 14 -24 205 93 -38 -134 -81 145 -167 -159 -79 128 255 357 -180 38 -237 -348 -725 229 1532 -280 -402 -369 -159 -138 11 332 81 -63 -186 -28 212 -39 -74 -221 -24 53 -63 96 7 191 39 -155 -137 -64 -132 95 82 -44 27 79 81 256 -109 -527 -454 -295 1449 848 -727 -622 -398 182 361 52 -203 199 -82 134 15 -467 163 50 141 94 -400 -102 69 68 51 -131 130 281 -36 -303 -315 7 -108 207 417 397 -50 -459 -348 -825 -16 1727 427 -758 -170 -41 -47 -296 228 47 151 14 -123 -48 -1 -27 -172 96 -67 -51 146 -73 72 49 -36 -102 -223 180 -86 3 13 -3 117 193 -147 -448 -163 -168 868 -163 -450 -17 -143 180 89 -232 54 91 57 76 -189 -142 77 169 -101 10 -135 192 -26 -211 144 27 -242 207 -166 -111 116 242 146 -348 -134 39 -237 -146 832 -179 -438 -5 130 -234 -211 110 294 92 -140 -26 -123 -8 -75 -1 44 2 -6 13 -126 142 47 -118 -139 42 121 -249 -129 82 558 -128 -138 -245 -299 -668 218 1306 -674 -226 -243 -132 -139 216 156 -30 75 -136 -14 85 -55 -204 92 -103 30 16 0 -104 212 68 61 -549 -75 203 20 91 -206 410 131 -40 -575 -274 -712 1084 1142 -568 -292 -476 -20 26 32 -107 154 119 9 72 -346 -147 -74 301 56 -202 -84 -15 244 118 -78 -134 -154 48 -50 -86 -51 58 484 34 -34 -336 -292 -619 129 1534 -250 -603 58 -121 -111 -63 -85 126 184 43 -72 -122 70 -40 -146 -107 107 61 92 -152 102 2 30 -297 112 -129 -50 -106 -87 353 88 29 -81 -161 -322 -497 -357 1559 557 -619 -715 -123 357 -41 68 -125 288 107 42 -461 -228 279 75 -67 -136 -126 192 80 -292 -254 196 350 93 -400 -332 43 59 158 87 144 -4 68 -451 -285 -730 903 1281 -470 -203 -619 -298 173 7 296 101 -119 -188 78 122 -185 -58 -269 368 -10 -467 -66 210 326 -146 -145 -203 166 -20 -195 -54 57 412 152 -284 -115 -295 -186 -567 1054 857 -766 -252 -78 -24 -361 215 254 66 -177 103 33 -112 -320 65 114 49 -31 -364 25 171 125 -111 -126 157 -153 -186 55 -191 -33 29 534 98 -245 -289 17 -733 -196 1510 -274 -416 -143 -243 -63 120 -88 194 63 -276 211 106 -248 -38 -68 199 15 -338 65 107 122 67 -80 -43 -64 -268 -242 9 252 341 94 -39 -218 -330 -414 -812 1418 887 -601 -385 -214 -242 43 181 42 -30 143 -34 30 35 -418 219 -3 52 -235 -119 147 103 -36 1 58 -117 -144 -222 81 -103 41 217 292 219 -308 -500 -183 -939 1035 1425 -778 -365 -378 22 188 -132 58 126 -143 300 -123 -311 177 -146 126 -145 -7 29 -1 97 -158 208 -98 -109 -44 53 -242 -15 7 156 423 97 -411 -335 -682 -274 1565 465 -499 -388 -195 -28 -133 120 218 183 -152 -239 -55 139 -74 -175 39 -17 81 -18 -46 -35 91 -72 -35 69 -132 80 -321 212 104 60 -78 -89 -46 -93 -536 331 438 -347 -98 -347 216 -72 0 133 -92 183 32 -241 -103 -16 94 10 -7 47 -79 30 -53 -220 105 -19 189 -219 -124 -130 113 378 54 -337 -384 -195 -186 985 -301 -78 25 -409 -207 -61 296 207 -28 -231 41 -147 138 -238 -125 265 -30 169 -201 -127 -27 135 -30 -158 -176 117 195 -53 198 -65 -222 -190 13 -705 708 939 -461 -298 -579 210 178 41 65 -112 17 -121 5 81 -148 -87 52 162 -145 -57 116 20 -188 21 16 -57 -306 119 222 245 256 -274 -325 -192 -853 816 1364 -589 -147 -383 -183 -12 198 190 50 -244 82 -13 -42 -144 0 298 -246 30 15 -99 301 -119 -277 -143 50 87 -241 234 508 -133 -68 -324 -187 -410 -186 1607 0 -450 -357 -266 12 -55 223 -10 149 -147 83 55 -161 -153 -87 113 -96 212 135 -453 428 4 -285 -116 -14 86 -208 -168 549 192 -30 -29 -418 -719 -482 1683 729 -761 -364 -242 121 -83 203 23 87 -76 -38 85 -97 -65 89 -133 -226 59 181 85 28 24 -71 -83 -301 -83 0 304 171 246 -213 -165'],['VivowatchSE-SNC-0004']
['2021-01-21 15:13:24'],[16.0],['-10 56 173 16 -210 -39 -5 -99 124 -149 120 68 280 -91 -172 -444 170 -286 73 1365 -202 -570 -359 -326 -6 324 568 49 -322 -116 7 29 -42 136 -415 136 98 124 284 -420 125 75 -184 -138 -235 42 267 24 471 -248 -371 -315 -265 -174 971 866 -910 -331 43 -61 -148 -171 213 255 -50 94 -125 42 -275 -263 90 320 30 -64 -58 -15 -215 49 334 -147 -186 -553 290 349 596 -8 -464 -389 -476 -671 1622 914 -959 -59 -376 85 -216 92 2 400 -225 211 -43 -208 -65 -288 127 -63 189 0 290 -131 73 -335 64 -52 -284 -86 268 761 160 -205 -604 -220 -722 436 1480 -84 -594 -242 -165 -24 303 175 -44 -153 -32 103 -89 430 -413 -74 -149 233 321 -224 -38 -325 227 56 13 0 -324 252 58 245 21 -352 -457 -987 1840 256 -537 -288 -268 208 -87 119 -165 295 0 87 -90 -72 -477 -88 602 -216 720 -232 -719 -218 212 338 -34 228 -189 -141 205 -29 -26 -317 4 -323 256 1207 -498 -576 -439 68 137 295 102 -131 11 -52 1 -163 -69 261 -174 29 280 -147 -85 199 352 -351 -643 -43 395 78 240 70 31 -82 -482 -971 379 1780 -125 -717 -295 95 117 -45 81 209 -260 -34 -170 285 367 -231 -232 -134 106 -179 160 374 90 -397 -102 -327 160 87 -181 357 501 -22 -121 -544 -284 -627 934 1366 -749 -78 -488 -200 123 -84 116 314 16 -68 -182 -86 52 -39 -35 122 -24 -6 16 -2 -58 166 -25 -91 -190 89 -100 -221 226 323 94 65 -341 -350 -779 149 1683 -46 -277 -418 -240 42 -1 184 143 -53 -38 -98 -71 228 -82 -240 15 -60 -19 31 374 -74 -317 -83 21 220 -15 -229 -208 36 238 352 -97 -165 -336 -43 -433 663 251 -450 46 -275 -181 -106 353 185 52 -143 -197 -158 202 37 -240 132 135 119 -173 -165 -55 107 12 25 22 70 -212 -251 182 30 283 35 -131 -319 -195 -567 1113 658 -706 -332 -128 144 -59 19 -24 169 82 -178 73 -38 -110 -84 -46 294 -111 -190 6 -19 286 -89 -40 -116 -29 23 -177 278 -9 85 -101 187 -100 -512 -640 1109 1203 -885 -345 -257 88 270 15 31 -24 -134 43 62 -39 167 -117 16 -202 -39 142 -235 158 147 26 8 -88 -20 -154 -2 -200 207 -14 266 186 -189 25 -268 -493 -928 1460 1061 -580 -406 -517 108 157 181 -40 246 -139 -126 -51 -93 109 31 -114 61 51 -44 -62 -123 88 39 -71 -68 351 -96 -252 -162 -372 236 487 -140 32 313 -664 -480 -560 1376 907 -541 -311 -747 331 182 -18 -207 348 58 6 8 -259 -291 86 393 -2 38 -372 -132 292 -112 28 -21 137 -7 88 -56 -385 190 129 -79 -228 466 -13 294 -347 -727 -415 -71 1556 -121 -580 -423 -333 292 247 -217 -151 290 -52 -38 -134 -156 225 13 176 -276 -185 295 35 25 -7 -4 -75 181 -243 48 -22 -60 -100 -35 201 102 33 -12 -166 -95 -430 -653 1458 602 -767 -91 -183 -32 194 -57 89 219 -101 -170 -51 27 -24 153 -1 -106 -199 -56 226 157 -130 33 -242 -188 210 -106 98 -36 -69 156 -63 -20 88 -599 -437 1011 112 -456 -244 -2 7 -197 166 53 221 15 -310 -193 135 74 69 -67 -189 123 40 -110 -209 30 312 143 -292 -253 -142 187 248 166 -174 40 -96 -292 -469 252 593 -185 119 -349 -553 140 248 -56 -41 -51 172 160 -372 -169 75 266 79 -154 -401 150 413 54 -49 -310 21 -101 103 -165 -162 155 502 94 -190 -587 -294 -691 992 1511 -501 -694 -508 36 138 273 -322 0 364 -45 -12 -187 -253 61 178 62 -186 -93 201 32 -134 46 -1 -54 -150 97 -191 -46 30 125 279 248 -354 -516 -476 -422 1581 437 -376 -332 -552 51 234 246 2 -75 28 -50 -72 49 -156 93 -5 -77 -91 -133 -7 366 -116 -12 -110 -248 111 268 -547 -249 490 337 165 -62 -478 60 -713 -444 1740 315 -552 -204 -172 -103 -4 82 214 -85 -56 266 -249 -183 -110 194 162 -146 -124 -82 142 143 -168 -218 281 61 -263 -125 99 -55 28 332 107 -213 -486 -274 -159 861 -91 -67 -209 -408 247 -135 83 -48 200 113 -98 -300 11 173 56 77 -332 -31 144 65 -142 -70 -46 184 -62 -74 -299 -153 146 369 82 -88 -185 -402 -379 -495 1686 -59 -614 -358 -250 252 -17 55 47 11 -103 189 -140 -258 -74 62 88 199 -122 -104 -171 71 104 10 -97 -131 -51 -127 245 452 -355 -295 -59 71 -422 93 859 -584 -157 -132 -352 168 149 141 -54 -151 -147 14 156 -135 -46 -80 143 -133 1 168 -165 182 28 -47 -247 -60 -52 189 -42 78 214 27 -446 -226 -523 29 1155 -335 -226 -441 -26 -14 66 4 -40 258 106 -64 -179 -40 -236 16 118 29 181 7 -167 14 -224 -140 155 224 -201 -184 -69 183 278 -89 -158 -370 -371 -662 1596 458 -744 -205 -346 -120 85 15 222 212 -239 -39 -12 -133 -32 -77 94 36 -77 25 -91 167 -24 -45 45 -55 -313 -82 104 -37 262 90 57 120 -349 -494 -850 1102 1442 -545 -390 -415 -191 166 87 125 122 -58 12 -161 38 26 -207 23 -16 3 61 -131 -27 236 -124 -59 55 -322 -35 142 -93 -54 236 130 136 53 -551 -494 -614 1414 907 -657 -194 -552 -92 228 161 83 -128 -44 134 -112 135 -143 -187 140 116 -71 -100 35 -99 233 103 -95 -249 -114 37 -97 76 51 117 83 -28 -97 -178 -344 -608 1113 145 -507 -202 -221 86 -51 70 -126 140 44 103 -110 -243 200 73 -126 -107 -181 279 50 -71 65 -101 -119 19 -185 21 -114 72 159 232 39 -235 -372 -87 -485 486 1322 -429 -318 -421 -310 234 91 167 -239 -7 68 102 -17 -162 -82 -99 66 -40 -120 211 150 -188 -42 -39 19 -159 -2 -147 -37 225 402 -59 -207 -260 -545 -312 966 1074 -783 -310 -146 -99 62 -17 120 134 163 -238 -95 -104 -95 174 156 -176 -94 -83 96 107 -210 287 -269 -49 141 -166 -64 -232 259 260 170 72 -427 -205 -684 158 1473 -70 -520 -319 -241 158 125 10 19 76 -94 -202 84 53 -105 77 -85 -123 -61 126 67 -32 -354 225 78 34 -80 -201 58 -58 92 -13 170'],['VivowatchSE-SNC-0004']
['2021-01-21 15:14:02'],[16.0],['106 73 -719 -288 1075 -753 -329 -95 -49 127 318 -91 55 114 32 -38 -105 -139 -5 130 -8 165 -3 -127 39 131 -39 46 26 -74 -81 -101 281 -98 -78 54 396 2 -62 43 -181 -757 79 1522 -306 -206 -397 22 -4 6 282 13 -178 -84 194 17 350 -338 -83 154 23 -49 98 -72 265 110 -247 -69 12 96 -104 -108 -43 228 464 -25 -152 -293 -142 -630 476 1396 -690 -234 -181 2 -36 124 -41 12 220 -16 -87 -113 38 -53 193 10 -129 59 0 -147 -38 120 135 305 -190 -296 -130 -109 87 93 489 80 -202 24 -338 -515 -259 1600 456 -628 -273 -411 112 112 253 -1 -53 -38 117 -4 -139 -144 103 303 -191 -163 22 91 71 -138 185 -11 -47 -11 -19 39 -198 -226 312 166 235 -33 -71 -28 -335 -907 470 1697 -651 -468 -231 -50 37 78 59 140 -44 79 -11 -159 -3 -269 317 65 -7 -31 -46 -32 -187 215 225 109 -202 -79 -71 -108 -113 85 148 357 66 -13 -143 -466 -640 -89 1674 403 -716 -312 -145 -65 73 70 -43 241 25 58 -152 -151 -139 3 264 111 -197 -267 206 22 -57 -67 199 299 -214 -168 -184 186 -103 0 -5 279 165 -13 -273 -393 -435 -381 1630 -190 -513 -11 -242 -129 24 140 114 240 -133 -142 -3 -151 -14 163 46 58 -38 -205 -44 -56 17 236 -1 -1 -98 166 -280 -142 -77 -73 298 121 287 -143 -143 -293 -168 -771 914 1147 -551 -215 -386 -102 -58 262 32 71 47 -9 -71 -100 -121 78 6 99 -65 85 -92 -1 -114 15 137 116 -254 -295 87 77 75 276 -58 -268 58 -322 -74 -536 1122 506 -602 -103 -355 -224 126 351 161 -8 -103 -256 -1 44 70 28 -26 244 -295 21 -98 -80 -2 206 14 -95 -41 35 52 -92 -340 -252 295 498 276 -191 -143 -536 -180 -588 992 960 -576 -186 -330 58 -21 109 -12 96 -20 -10 -184 49 13 14 102 -196 -126 -43 166 65 -247 2 319 55 -140 -213 -41 -20 -330 420 -126 311 260 -271 -191 -249 -1054 932 1453 -567 -348 -257 176 -220 -109 2 75 236 66 -212 -175 242 -32 -313 173 6 33 -122 -115 310 -205 -172 314 -62 -319 313 -168 -338 20 182 -78 184 111 -29 -41 -259 -750 -540 1741 21 -540 -81 -600 108 146 35 -24 22 11 -51 -66 87 -128 24 133 -87 -50 -30 -175 94 149 -265 320 112 -208 -2 -311 -92 134 -321 336 5 103 334 -223 -326 -575 -883 1243 1335 -712 -202 -583 31 35 172 5 162 -114 -159 111 -174 33 -3 131 -150 80 -26 -198 72 101 54 -86 146 34 -373 -332 154 113 -1 304 0 15 -293 -318 -475 335 1241 -286 -250 -179 -343 -146 136 275 45 243 -240 -90 -197 -106 207 204 4 -232 99 -95 -40 40 15 113 -278 -15 70 -135 -89 20 252 279 -249 -298 -56 -296 -422 1106 525 -635 -318 -243 268 -77 151 34 -82 137 -263 -40 -14 -79 293 -196 -335 88 167 -9 -31 28 -89 142 -161 -229 -128 79 177 244 213 -277 -22 -287 -631 -423 1493 517 -666 -237 -154 42 -288 275 -72 197 148 -179 -88 28 -109 123 -97 -266 152 105 -41 -95 168 99 -83 -89 -214 -224 105 206 9 323 37 -29 -497 -304 -816 628 1598 -680 -239 -396 -194 -78 163 248 37 -163 -29 -139 -7 72 -91 -27 -60 -28 -52 121 -123 -9 78 116 -53 -247 -37 -67 61 -55 324 111 -70 -376 -322 -339 -233 1504 -482 -493 8 -235 36 -154 360 55 27 -94 -178 -89 130 98 -51 -88 29 -99 -36 -247 89 466 -73 -42 -371 -11 -19 -24 12 -61 342 238 78 -320 -420 -432 -485 1378 762 -734 -174 -389 59 -127 108 201 91 -68 -300 88 115 -50 -172 52 -21 62 -29 -236 204 -59 -113 89 41 -146 -39 16 -25 -124 -266 88 371 186 79 -476 -365 -306 -537 1610 198 -728 -292 -315 206 12 -36 113 97 -132 -255 196 152 -201 -71 40 201 -351 -43 20 174 16 -129 -26 -9 108 -59 -17 -314 55 -41 191 -118 273 8 188 -286 -398 -640 -108 1667 -381 -226 -568 -68 111 -22 25 5 -20 55 129 -214 -103 17 115 60 -16 -244 0 -65 95 12 81 -41 121 -125 -109 -160 -122 144 -177 179 334 125 -173 -109 -328 -403 -518 1175 931 -606 -375 -391 82 158 172 -158 145 16 -88 -53 -130 13 74 71 -54 -218 49 -94 74 168 -85 -5 -3 65 -175 -133 -221 97 195 139 155 -60 -430 -187 -91 -420 998 124 -319 -59 -364 -143 73 180 60 46 -19 -263 106 -49 -58 158 -30 -190 113 15 -96 -118 -30 100 61 183 -200 109 -261 -286 -17 185 37 192 334 13 -354 -551 -877 86 1977 137 -536 -414 -224 -32 -6 221 189 110 -276 -236 -41 374 -139 -115 -148 -75 116 -89 74 145 -51 115 -176 -212 117 36 -373 -206 329 425 70 -114 -262 -396 -562 -389 1600 180 -572 -248 -307 -136 90 48 53 278 -18 -131 -77 -34 -152 -78 152 109 -89 5 -187 106 209 -272 41 168 -136 -291 4 13 338 177 -127 -93 -329 -462 -30 1122 213 -388 -297 -181 28 -201 71 152 49 159 -132 -276 24 -14 5 -116 28 129 94 88 -294 -53 68 -247 -46 2 -101 270 207 -16 -237 -446 -29 -630 916 723 -228 -339 -440 -47 -48 201 28 315 -177 -191 -74 56 18 -110 64 -22 -96 -13 41 126 -11 -50 -120 -219 -100 149 121 84 13 4 -7 -295 -443 -823'],['VivowatchSE-SNC-0004']
