Time,Period,ECG,DeviceID
['2020-11-07 11:58:33'],[16.0],['-236 -439 -553 -263 386 -111 -191 -57 -132 46 -181 -133 -107 -154 -292 -198 -56 -125 142 212 101 -349 -411 -482 -234 89 77 213 342 193 -430 -574 -815 -1153 222 3037 791 -1952 -995 -591 168 297 199 116 -79 -315 -62 0 -161 -371 -289 226 16 -197 -48 -10 -153 -262 -112 70 67 -103 -330 -292 13 102 122 32 -118 -394 -132 -217 -172 -120 94 121 317 258 -152 -683 -1057 -1374 1112 3188 -213 -1470 -953 -755 56 358 430 90 140 -162 -392 -495 -163 63 324 38 -98 -408 -287 160 105 -44 -146 -4 -156 -242 -117 -107 51 46 -93 89 -61 -131 -208 -239 -224 -164 -1 83 275 344 85 -75 -946 -1192 -1222 2023 3201 -861 -1654 -1007 -256 122 403 339 141 -19 -138 -338 -332 -81 -133 242 75 -93 -436 -88 7 -4 27 -57 -102 -101 -42 -124 -209 -215 -2 86 265 -109 -26 -77 -105 -308 -445 -3 -55 201 258 349 215 -114 -916 -1056 -1459 1017 3447 189 -1517 -869 -614 0 322 180 334 295 -70 -424 -501 -206 19 268 53 -189 -119 -123 51 -24 -21 -108 -211 46 -170 -169 89 -26 -73 -37 -181 51 155 35 -324 -293 -216 28 68 193 175 65 -227 -10 -523 -917 -642 76 3290 -322 -1922 -1216 -953 364 662 644 383 181 -140 -775 -1075 -229 181 1158 466 171 -579 -757 -302 -115 266 -28 175 106 -20 -218 -17 -525 -29 486 180 -170 -152 -341 -113 235 86 -149 -328 -17 360 578 -132 -776 -1173 -1299 1807 2881 -704 -1653 -753 -510 141 330 435 91 74 -68 -215 -467 -296 -94 187 264 -48 -198 -102 42 -184 -61 -2 -41 -45 -202 -288 -190 463 168 -276 -159 48 -11 -294 -104 -268 -273 187 332 306 370 -47 -729 -947 -969 -302 2830 1823 -1497 -1297 -786 11 247 312 327 72 -83 -177 -370 -184 -45 120 277 -168 -237 -130 -78 -73 69 91 98 -110 -230 -366 -152 214 -31 -32 22 155 -116 -242 -146 -29 -135 3 -144 -17 244 414 300 -237 -612 -1141 -1152 1178 3314 -204 -1850 -677 -415 112 254 428 334 43 -357 -484 -199 -36 53 278 -141 -55 -168 -189 -126 114 153 -101 -77 19 -70 -113 -208 -116 -14 11 107 51 170 -27 -203 -369 -380 -143 92 401 314 298 153 -258 -1037 -1498 -1070 2844 2579 -1696 -963 -825 -141 242 318 185 332 -95 -281 -331 -296 101 231 108 -11 -263 -174 -35 -10 65 2 6 35 -158 -235 17 -185 51 24 67 127 51 -155 -208 -153 -93 -43 -236 219 345 381 -18 -330 -752 -817 -1090 1709 1752 -1382 -755 -859 -210 66 404 440 259 -20 -374 -498 -116 133 154 248 -18 -158 -155 5 -205 89 82 -26 7 -96 -68 -164 -31 6 -41 89 69 70 -179 -98 -96 -189 -232 7 189 468 152 -48 -476 -683 -1153 -544 3298 123 -1506 -798 -521 120 291 386 41 145 -99 -199 -328 -152 -52 248 265 66 -253 -173 -84 -42 109 -4 -90 -37 39 -75 -47 66 1 -11 -49 -141 -184 -93 -177 171 270 500 250 -236 -807 -1064 -1053 1357 3232 -533 -1357 -598 -279 208 108 410 237 89 -216 -313 -307 -112 168 161 -37 28 -105 -121 12 35 60 -120 -165 -63 -90 20 170 114 24 -52 -127 -84 -379 -102 -28 128 256 474 315 -247 -581 -1174 -1102 1298 3210 -261 -1576 -681 -375 151 104 475 261 64 -187 -148 -268 -211 43 333 40 -261 -198 37 -25 46 155 -115 -36 -206 -193 30 7 129 97 80 -11 -131 -231 -194 -95 -85 110 167 590 192 -85 -657 -1160 -1356 1446 3253 -285 -1544 -788 -571 91 382 344 228 181 -91 -345 -226 -137 -43 348 125 -168 -182 3 10 69 -116 117 89 -98 -181 -185 33 18 -29 68 179 158 39 -445 -262 -341 25 201 431 601 -5 -141 -1013 -1196 -1373 2594 2967 -1194 -1551 -875 -337 262 503 473 177 -105 -281 -254 -220 -73 172 337 118 -199 -242 -38 -43 10 62 70 27 -39 -99 -87 -162 -22 133 83 84 59 -12 -132 -197 -269 -140 -30 297 478 352 104 -574 -1042 -1271 239 3380 1144 -1897 -1035 -612 128 255 525 315 -24 -17 -219 -440 -188 106 302 288 -184 -256 -49 -10 -20 53 114 0 -139 0 -137 -29 -188 210 214 129 -40 -288 -129 -85 -88 -159 251 254 379 107 -151 -697 -950 -1335 2441 2506 -1239 -1308 -816 -193 258 376 433 281 -63 -458 -229 -40 -94 213 311 84 -233 -177 -95 13 87 16 124 -89 -93 6 -102 -112 44 -2 59 76 121 -24 -147 -44 -165 -134 -179 121 279 571 269 -228 -571 -1119 -1156 1603 3153 -418 -1606 -789 -195 37 265 550 201 18 -53 -316 -335 -7 112 278 -71 -116 -93 18 27 -68 -31 134 116 -43 -101 -148 -123 113 85 2 -78 14 90 114 35 -227 -138 -239 -142 -99 331 583 563 85 -560 -988 -1275 -686 2509 2654 -1567 -1110 -844 -207 306 405 422 122 -92 -174 -377 -179 14 292 250 -26 -231 -175 -41 -35 97 67 185 -23 -19 -231 -44 -145 -12 4 159 150 32 121 -15 -167 -304 -159 -61 41 235 289 298 243 -10 -716 -1070 -1522 1899 3268 -669 -1505 -773 -481 103 459 316 393 243 -352 -330 -342 23 170 274 269 -209 -323 -52 -51 124 -19 188 32 4 -49 -238 -44 -41 -11 -44 258 156 11 -39 -191 -119 -134 -205 -89 280 270 323 332 -83 -515 -847 -1212 200 3188 1040 -1636 -816 -624 54 272 510 356 135 -8 -310 -455 -243 110 325 124 15 -136 -149 -49 65 -9 51 -2 0 21 -95 -162 -42 109 179 104 -88 44 -36 -149 -279 -56 -30 197 351 484 173 -250 -834 -1040 -967 2100 2762 -1023 -1062 -708 -157 204 364 404 206 74 -267 -363 -199 -86 257 287 95 -94 -240 -159 78 148 -81 81 56 74 -149 -98 -29 -131 34 5 227 67 61 -68 -101 -173 -181 -137 35 406 321 401 -34 -583 -737 -918 -501 2590 579 -1340 -702 -713 43 266 433 179 114 -37 -209 -284 -127 -20 306 288 65 -193 -244 -26 57 107 -31 200 -29 -72 -75 -58 -108 -167 155 109 80 74 103 1 -177 -185 -190 -201 78 230 338 545 283 -291 -969 -1092 -925 2229 2908 -887 -1371 -818 -304 174 422 513 225 43 -151 -217 -359 -70 108 365 -2 -131 -102 -68 28 -1 -26 63 187 -39 -96 7 -149 -139 -8 99 122 154 77 31 -148 -188 -183 -143 -157 208 294 515 564 -37 -754 -1108 -1426 195 3599 1188 -1632 -916 -623 -14 259 483 273 273 -66 -245 -397 -225 70 314 227 -37 -119 -189 26 23 15 80 35 33 -32 -9 -115 -148 -102 134 119 141 86 26 -177 -213 -135 -82 -102 261 241 371 240 -160 -751 -708 -1071 253 3101 -658 -1290 -659 -371 103 297 320 254 221 -190 -223 -366 -45 160 327 167 -69 -247 -77 42 -2 5 159 118 -154 -176 -101 -1 121 -114 201 130 63 -71 -130 -250 -90 -34 82 243 345 232 55 -626 -763 -1121 106 3041 -419 -1326 -653 -444 82 384 382 231 162 -290 -262 -224 21 -43 334 291 -75 -227 -67 -32 -80 144 53 120 -107 -96 -26 -76 31 -23 202 35 -22 0 -50 -169 -121 -182 135 260 339 284 -22 -637 -846 -1088 365 2846 -549 -1236 -546 -445 46 294 300 329 201 -193 -332 -229 -50 89 243 255 90 -354 -75 -137 72 158 194 -46 -164 -53 -61 -64 -81 108 65 123 91 -29 3 -232 -182 -117 -147 153 321 450 334 -43 -669 -1097 -1619 1763 3329 -369 -1515 -929 -531 163 303 532 375 104 -239 -258 -318 -138 164 301 289 -213 -160 -150 -133 187 189 45 -80 -59 -118 -97 -24 29 8 68 242 87 -151 -29 -177 -231 -44 -132 158 330 454 332 -4 -786 -1172 -1239 1427 3498 -159 -1803 -834 -301 100 358 310 316 248 -134 -311 -382 -88 66 364 67 -23 -219 -171 -23 62 156 61 -6 -113 -74 3 -111 -15 22 -9 96 131 30 81 -34 -185 -421 -185 16 254 499 412 238 -150 -717 -1075 -1439 977 3688 193 -1470 -783 -547 103 199 461 451 98 -191 -232 -399 -240 226 318 199 -92 -260 -90 -27 61 106 177 -55 -85 -68 -93 -71 1 58 76 50 55 -15 34 -90 -31 -233 -193 23 173 199 557 -5 -127 -676 -684 -1123 605 2787 -1047 -1025 -633 -317 139 181 452 274 186 -169 -434 -202 2 62 343 250 -41 -278 -145 -42 121 111 39 26 0 -82 -165 -27 19 17 168 56 125 -104 -122 -152 -5 -213 -36 209 417 323 15 -450 -751 -1041 -776 3452 544 -1684 -768 -479 50 250 476 184 206 -137 -272 -253 -145 66 244 263 115 -167 -175 -245 0 57 117 198 -39 41 -82 -228 -109 -25 57 22 179 195 -79 87 -138 -128 -254 -209 -2 137 452 383 385 -8 -694 -968 -1286 476 3452 782 -1746 -741 -534 -54 258 648 361 108 -152 -372 -295 -185 -2 589 119 -178 -126 -197 -115 20 131 175 63 19 33 -202 -167 -109 64 95 87 96 -2 54 66 -209 -149 -76 -78 -114 92 226 489 235 -57 -628 -744 -1398 -4 3464 -419 -1345 -670 -526 49 276 448 235 151 -127 -272 -184 -64 -68 290 272 57 -221 -229 -71 57 62 105 91 67 -49 -86 -205 -112 50 -54 156 110 48 98'],['ASUSLife-vivowatchbp-00003']
['2020-11-08 10:22:28'],[16.0],['-100 -182 -89 -93 -604 -940 -673 -239 -25 51 394 -206 -340 -371 -492 -436 -22 283 -188 -630 -901 -960 -204 1865 2205 -1437 -2672 -1076 281 618 554 -27 -780 -783 -411 -7 235 346 171 -310 -719 -1151 -1347 -867 791 2745 823 -1650 -2531 -1705 -485 949 883 204 -206 -491 -682 -825 -136 191 43 -192 -191 -340 -499 -532 -457 643 1449 -835 -1281 -428 -201 43 -57 -92 172 -60 -326 -236 -656 -648 -66 -73 -100 -23 309 -125 -837 -443 -183 -63 -114 -290 -217 21 60 -557 -497 -188 -445 -16 326 105 -700 -757 -203 85 -18 -69 -930 232 529 -1008 -759 -695 -260 66 550 231 -486 -501 -569 -456 155 -288 -502 -546 -329 593 566 190 -785 -1074 -1165 -859 136 596 1361 434 -541 -913 -1088 -1003 -196 285 75 253 366 272 -69 -653 -1140 -1345 -1180 124 2571 1805 -678 -1289 -1849 -924 -43 744 916 -69 -387 -414 -446 -273 -454 -312 -1 -78 -85 -208 -148 -221 -173 -388 -379 -209 -249 -32 34 -318 -278 -155 -65 -427 -416 -458 -134 199 377 120 -442 -938 -1048 -606 525 1828 -1061 -861 -509 -524 -228 -135 223 136 -97 -395 -519 -654 -125 -109 -218 -84 144 26 -34 -394 -497 -781 -538 -398 172 588 379 225 -376 -521 -1307 -948 -387 526 832 214 -319 22 15 -856 -962 -1276 -518 1769 1512 -813 -1017 -657 -43 -23 -107 -210 -591 -590 360 162 -286 -375 -404 130 -21 -119 -397 -452 -519 -532 -234 5 486 492 535 -335 -1649 -1072 -335 331 455 404 125 -420 -661 -591 -113 -53 -298 -551 -593 -478 823 1448 -975 -765 -816 -643 -206 22 189 129 -35 -360 -350 -553 -137 -243 -229 -85 -261 -288 94 -32 -261 -444 -171 -406 -338 -159 -271 -42 23 23 115 -239 -654 -811 -1028 -712 449 1130 1539 485 -1217 -2034 -2628 -1305 2364 3789 870 -1558 -2249 -1184 35 497 364 -79 -34 -66 -515 -790 -142 939 -272 -950 -751 -456 -1 -20 546 105 -232 -404 -748 -560 -170 10 106 230 -103 -347 -320 -370 -331 -344 -147 -27 462 253 -428 -1002 -1028 -1306 1729 2057 -936 -1412 -635 -450 -137 400 0 44 -358 -378 -83 -174 -535 -165 129 -458 -36 -18 -231 -113 -289 -380 -94 -99 -128 -276 -244 -185 135 -365 -278 -224 -124 -282 -126 -209 -192 142 -25 -185 -215 -614 -697 -906 621 2163 -1389 -954 -591 -258 128 -250 115 -28 -93 -248 -268 -387 -273 -213 -48 -197 -150 109 -128 -393 -281 -614 -219 72 190 -23 -131 -316 -371 -229 -1042 -213 556 610 559 -214 -822 -829 -1117 -610 431 1441 156 -845 21 397 -1531 -1636 -252 491 1223 825 139 -658 -733 -1073 -1047 -307 461 1124 570 -274 -857 -1134 -484 -100 115 208 117 -287 -330 4 -228 -293 -326 -365 -85 17 -42 -193 -175 -316 -615 79 416 79 -569 -946 -922 -426 2048 -127 -1287 -268 -478 -68 -198 -74 10 32 -428 -217 -156 -241 -197 79 -7 -415 -437 -170 -19 -10 14 -295 -87 -362 -127 -218 -341 -109 -32 -81 -35 -132 -358 -379 -356 -160 211 230 339 -38 -1142 -1221 -1023 1080 2519 -305 -1056 -529 -685 -337 -397 -3 565 804 64 -477 -1120 -1045 121 251 191 157 -95 -175 -295 -305 -343 -263 -97 -55 -140 -167 61 81 -59 -476 -257 -294 -330 -130 166 45 29 355 -222 -554 -905 -1287 187 2694 730 -1471 -941 -959 -131 255 444 11 122 -250 -340 -425 -216 -11 -259 39 -124 -49 -67 -117 -384 -62 -176 -251 -355 32 -93 -105 228 -114 -277 -609 -311 -269 96 135 -62 24 356 -160 -496 -928 -1308 -103 2464 1015 -1560 -476 -508 -287 -71 198 44 164 -230 -278 -190 -389 47 -99 -215 -25 -39 -122 -226 -71 -23 -308 -138 -194 28 24 -288 2 20 -206 -221 -253 -410 -53 -59 211 259 175 -96 -1017 -1136 -1606 2203 2576 -899 -1596 -697 -451 114 298 105 119 -154 -116 -375 -36 -340 -207 119 44 -110 -326 -42 -141 -201 -42 -92 -94 -211 -100 -64 -70 31 -205 -117 -383 -347 -229 174 251 342 164 -186 -705 -1299 -1035 933 3084 -59 -1727 -747 -381 -116 232 210 23 264 -395 -423 -146 -100 -248 71 -51 -113 -232 50 -53 -110 -150 -139 -191 -153 -44 -36 -57 75 -57 -244 -446 -199 -132 167 171 247 208 -312 -908 -967 -898 1023 2750 -1278 -1198 -681 -351 162 151 360 8 -202 -290 -400 -194 115 -36 -132 58 -81 -444 87 -109 -35 -147 -23 -175 -142 213 -91 19 -416 -69 -204 -295 -137 106 192 153 45 -178 -696 -730 -897 154 2605 -823 -1276 -614 -245 37 123 298 -61 -79 -43 -79 -538 -4 37 52 -120 32 -238 -152 -32 -65 -132 -143 -55 -17 -187 54 0 -153 -14 -361 -186 -64 -186 -105 167 447 181 -199 -622 -1040 -913 916 2647 -220 -1555 -600 -408 166 258 165 9 -93 -127 26 -421 -159 -5 2 16 -195 -88 -27 -129 -77 -147 -10 -36 -356 8 41 130 -338 -23 16 -266 -178 -324 -1 220 236 101 94 -323 -482 -897 -1245 1083 2666 -1072 -1141 -552 -383 208 -24 193 192 69 -143 -293 -329 -52 -88 84 13 -205 -4 -111 96 -136 -289 4 -73 -45 -120 -222 48 133 -56 76 -136 -517 -216 -82 -70 82 157 443 208 -198 -783 -1270 -1198 2051 2564 -780 -1260 -841 -103 136 30 137 285 -59 -72 -235 -237 -212 -191 137 -146 0 -116 65 120 -301 38 -95 -285 -184 -113 15 27 342 -60 -138 -168 -374 -198 -167 50 0 280 96 99 -78 -233 -434 -921 -853 674 2791 324 -1723 -829 -420 8 14 480 314 35 -282 -295 -192 -58 44 -92 -75 -99 -52 -66 -39 -45 111 -54 -333 -143 18 12 -118 -286 35 -10 87 -110 139 -77 -207 -206 -339 -226 -79 661 169 476 -145 -618 -932 -1263 -25 2488 1667 -1571 -829 -535 -165 210 415 135 34 -30 -343 -357 16 145 -146 0 -171 -51 -228 -105 276 -57 -106 -305 -82 4 -134 -66 19 -68 -221 63 88 -128 -167 -203 157 11 -413 -285 -80 277 205 645 -150 -596 -967 -1239 -493 2606 818 -1591 -837 -734 -26 189 368 -50 55 4 -155 -262 -158 -48 16 18 -13 -125 -135 -41 43 -152 87 -65 -217 7 16 204 -317 -439 -28 92 234 160 -94 36 -541 -452 0 -9 -93 141 498 427 -136 -651 -1015 -1026 -179 2668 1603 -1489 -1107 -654 -111 157 452 110 -120 77 -153 -100 -153 -305 -113 45 84 -25 -63 -214 -57 23 -23 -2 -61 -150 -261 -194 192 144 -175 -105 18 38 -140 -68 -283 -310 3 158 9 196 299 -74 -240 -839 -955 -106 2106 1476 -1320 -976 -569 -172 356 145 335 116 -255 -157 -204 -109 54 -151 -24 10 71 -111 -141 -20 82 -46 -173 -40 -329 64 -162 151 63 -57 67 -8 -376 -255 -88 -97 230 -112 176 276 77 -67 -428 -797 -765 -93 2306 1111 -1250 -772 -683 -64 80 270 225 266 -40 -328 -169 -333 -77 26 22 133 -93 -116 -28 -93 54 25 -60 -221 -175 -58 -31 108 -26 30 -37 41 -165 -178 -94 -314 109 -175 92 344 328 296 -329 -702 -994 -816 1250 2438 -271 -1299 -513 -358 -120 319 244 110 85 -185 -158 -235 -31 8 -55 -272 139 -56 -134 189 45 -38 -241 -163 -236 -57 160 -37 2 4 -31 39 -48 -317 -222 -317 -127 271 414 460 128 -181 -1048 -1295 -706 2205 2593 -903 -1432 -803 -177 165 243 310 121 117 -182 -196 -300 -154 125 115 -144 -115 -19 98 81 -80 -182 -28 -99 -94 41 -129 50 157 71 -34 -284 -134 -273 -36 106 52 204 229'],['ASUSLife-vivowatchbp-00003']
['2020-11-09 12:47:18'],[16.0],['258 -20 104 -161 61 66 67 34 123 90 -719 142 602 -136 -75 -136 -45 143 223 14 -88 -213 -111 173 75 29 81 -120 57 90 0 -73 -104 -89 -436 380 890 41 -262 -367 -584 -293 500 1636 -256 -1325 185 144 270 -26 -15 -187 -35 -46 293 28 101 -78 -201 50 -124 167 12 24 33 189 -169 1 -80 -101 -418 143 798 108 -170 -343 -241 -13 15 259 71 89 154 -109 -157 -246 -224 -333 -29 995 1423 -798 -1260 -79 -451 381 851 241 -145 -223 -233 -12 -10 12 -34 -60 155 124 105 -81 -172 -189 39 120 50 17 -114 -41 159 101 -94 -161 -142 -45 116 64 16 149 54 -80 -449 -129 692 8 -465 -539 1143 745 -1375 -311 247 95 227 60 -173 -96 -93 -87 200 154 10 -46 -210 -59 -420 57 756 103 -103 -247 -98 -144 7 -55 110 109 99 135 -26 -85 -372 -36 48 -1 53 78 83 124 6 -282 -139 -269 -279 -86 1674 0 -1656 -35 283 180 -278 60 645 -68 -396 -228 44 125 107 -88 -119 198 14 -81 -86 -31 -182 -38 140 146 138 92 -307 -87 -561 156 797 -9 -68 -311 -21 14 -179 159 143 74 -5 -198 -5 -158 -458 288 1304 -1194 -938 492 182 139 80 104 -130 -205 -174 64 70 227 72 -13 -211 -151 -453 180 886 179 -212 -416 -238 -177 65 275 130 214 205 18 -304 -450 -558 -388 807 917 286 45 -707 -866 -341 537 811 -17 -351 -183 1107 -887 -1110 389 299 249 107 -48 -173 -178 -102 113 74 0 -91 -42 205 28 -278 -55 78 113 64 18 -226 67 129 108 -75 -129 -461 92 775 179 -235 -448 -112 -23 198 266 147 -11 -57 -123 -326 -187 -229 95 1602 -670 -1241 456 73 -28 -518 174 633 95 -118 -79 -68 -220 -118 -10 13 65 174 181 -34 -177 -123 -140 88 62 -99 -10 114 91 6 -38 -90 52 -178 -111 -89 186 154 195 152 -119 -643 -155 490 2 -156 -184 1346 -787 -1201 351 198 203 96 52 -131 -98 -233 -44 144 228 37 13 -119 -191 -400 -96 718 278 -51 -133 -244 -120 -139 10 72 186 158 134 -121 -101 -276 -200 -5 42 189 248 152 -15 -106 -287 -323 -212 -146 113 1702 -552 -1334 210 -52 63 -257 77 652 129 -224 -305 -83 29 7 -147 95 322 39 -235 -158 -168 125 106 -27 30 16 108 -99 150 -637 2 538 90 91 -46 -328 -236 -19 325 101 226 -122 -262 -158 -111 -466 745 665 -1566 -192 510 221 77 -196 -37 -25 -116 -60 169 84 24 35 -106 -28 -83 -370 7 663 268 -199 -242 -179 -20 88 10 -12 226 102 -63 -202 -297 -193 186 193 144 143 161 -86 -377 -800 241 608 352 -138 304 500 -1619 -490 175 123 278 487 304 -55 -325 -432 -192 -74 166 152 351 4 -136 78 -23 -309 -25 21 -107 23 193 194 73 39 -206 -227 -304 -242 904 525 -194 -568 -321 -57 103 468 263 16 -219 -283 -295 -387 179 1241 -1024 -300 363 -45 76 -167 -50 -15 17 0 97 68 117 -110 122 -66 -207 -508 133 677 236 36 -262 -279 -8 -8 17 147 80 -55 94 23 -21 -104 -193 1 -52 93 319 124 27 -200 -302 -352 -60 52 1358 -441 -1308 295 332 143 -145 -534 121 644 104 7 -155 -98 -198 -147 142 86 -71 147 158 13 17 -111 -233 -127 66 60 36 128 25 243 38 -306 -227 -263 -87 186 337 240 100 -98 -176 -232 -435 -324 176 1429 103 -926 284 -4 80 80 -64 -596 30 723 94 97 -106 -170 -427 10 192 -70 180 129 239 -279 -73 -199 -100 72 -100 122 150 84 100 -123 -170 -194 -123 -35 17 320 405 91 -67 -422 -248 -764 -293 1058 1754 -2 -1735 -38 -36 97 160 290 162 33 -310 -97 -47 53 50 74 -244 -28 134 -76 164 143 -3 -362 18 -208 -19 115 221 74 147 -102 -171 -499 -204 684 4 -72 59 180 -157 -107 -86 -151 -48 -290 -106 1188 964 -1400 -711 122 75 196 62 157 -48 115 -133 -191 -21 -25 1 -32 -9 173 -11 29 73 -125 -29 -164 -49 -77 75 132 111 169 49 -203 -291 -505 41 694 118 127 68 -211 -207 -90 -69 -302 -113 182 1395 514 -1791 -493 318 227 67 141 124 -171 0 -23 -44 -122 8 23 56 -76 21 64 73 -127 8 23 -53 -70 -128 -23 59 21 238 140 54 -222 -186 -627 -39 728 445 159 -112 -394 -215 -212 -209 -57 436 1320 -1297 -880 492 70 136 -105 55 -146 -73 53 127 208 -16 -224 -182 -88 -176 231 241 17 105 -149 -66 -25 -170 -66 -43 -2 148 122 90 68 1 -183 -389 -435 104 943 395 -65 -322 -287 -215 -279 -133 352 1573 -970 -917 220 -8 162 14 105 2 -118 -152 130 216 -97 -116 -67 -2 -138 -103 212 214 131 -74 -122 -151 -498 -14 647 208 4 -103 -78 -161 -113 -20 20 -2 77 198 28 -30 80 -112 -96 -312 -232 -314 946 1381 -1423 -300 28 43 124 37 36 -140 91 76 -44 58 -20 -123 -213 -103 54 122 180 24 98 -86 -121 -133 -533 52 720 251 -18 -59 -267 -283 -47 39 75 39 229 203 -100 0 -236 -259 -127 -229 -5 1403 578 -1614 173 63 13 174 -51 5 92 117 -55 73 -5 -25 -679 -64 657 302 -79 -3 -113 -138 -182 -11 -95 5 185 252 145 -227 28 -368 -59 -31 165 166 44 295 -17 -141 -273 -323 -248 -124 541 1703 -439 -1441 -97 183 -149 115 580 138 -146 -341 -24 -26 123 76 -126 42 2 -39 61 -55 -68 72 44 -55 -7 -132 -156 103 228 -70 -31 -29 -56 -18 -110 -170 152 273 86 59 -185 -116 -254 -190 -192 1340 -313 -1257 207 314 65 74 -445 2 584 -102 -219 -20 126 -61 -90 -217 33 175 139 -66 -28 84 -132 -71 -162 -72 163 255 -8 63 -74 -130 -74 -122 -131 -40 157 352 170 67 -123 -227 -667 -240 369 399 1332 -419 -796 26 -59 185 101 115 -11 -79 -48 27 80 123 -204 -199 -122 121 150 144 41 -40 -45 -294 -151 33 21 176 268 190 -82 -143 -654 -223 492 320 155 -73 44 -180 -53 88 -136 -341 -297 73 1372 906 -1456 -644 -61 102 288 79 122 -19 44 -81 -70 -81 -129 39 -54 -5 245 38 -120 -12 18 -48 -124 -76 7 -62 68 209 210 76 -65 -324 -596 -131 703 336 92 175 -197 -242 -284 -210 -325 -218 1007 1709 -774 -1769 43 212 177 203 222 -45 -117 -122 18 116 7 -130 -224 63 -6 214 86 105 10 -270 -424 -64 523 184 104 -82 -246 -116 68 73 3 -84 2 69 98 171 -39 -205 -72 -180 -158 -89 451 1333 -1218 -738 227 45 179 92 30 44 31 -18 19 -151 -424 -97 559 144 168 -164 -161 15 -87 3 -41 84 -49 40 74 -47 135 -34'],['ASUSLife-vivowatchbp-00003']
['2020-08-18 12:55:32'],[16.0],['-1806 -337 -781 368 -592 -1159 1289 394 -1915 -1276 -343 -111 45 -658 -742 -49 28 -428 -802 -583 -574 -801 212 139 -425 -629 -1090 -640 112 -97 -311 -130 -617 -1223 -558 319 1087 -1333 -1736 -328 400 351 -463 -454 -965 -645 -440 -4 -411 -225 12 -486 -216 -767 -527 -569 -200 -67 -207 -323 -540 -373 -395 -355 -459 -203 -343 -35 -345 -665 -353 -356 -523 -325 517 -427 -794 -276 -524 -54 -287 -452 -40 -415 -434 -470 -468 -302 -194 -108 -196 -325 -610 -617 -245 -247 -81 8 -591 -659 -40 -168 -255 -575 -945 -487 751 -63 -620 -644 -889 -238 880 -694 -1605 -213 -122 175 76 176 -640 -865 -861 -1032 489 119 190 17 -272 -1071 -617 -279 26 216 -589 -453 -85 128 -308 -697 -637 -422 188 231 -294 -597 -646 -691 -264 614 790 -821 -1083 -268 -683 -444 456 232 -388 -303 -504 -523 -130 28 -382 -411 -260 -101 -293 -352 -71 -98 -100 -351 -587 -638 -346 -166 316 -119 -45 -152 -751 -768 -383 -71 -173 1013 33 -1530 -135 -290 -110 104 -307 -528 -106 -87 -95 -149 -561 -257 -407 46 -267 -271 25 -95 -628 -590 163 148 -103 -902 -241 88 -104 164 25 -400 -1074 -524 297 -46 645 164 -1287 -348 -191 44 -124 -261 -134 -50 -192 -174 -462 -433 -40 -151 -199 -95 -295 -257 -21 -354 -20 -269 -505 -330 -18 35 -186 -40 -180 -560 -82 -248 -278 -438 150 563 -1135 -171 296 -169 -452 -618 343 -77 -381 -339 -381 -69 77 61 -254 -371 -587 -549 29 296 285 -341 -623 -312 -29 -230 -384 -237 -30 -26 86 -336 -323 -496 -293 -289 709 160 -1163 -328 -253 167 -123 -74 -249 -138 -202 -483 -60 -136 -202 -421 196 29 -105 -161 -291 -457 -199 -372 -104 300 176 9 -128 -605 -799 145 283 93 -200 -87 -350 -506 -38 516 -316 -756 -150 262 233 53 -709 -587 258 -152 -171 -87 -280 106 31 -595 -195 -8 -216 33 -442 -458 172 409 -195 81 143 -223 -2238 -1513 2324 1063 71 -364 -365 -757 -1275 -123 266 590 630 130 -548 -976 -604 269 341 121 342 -774 -35 -23 -168 -128 -140 82 -137 221 -285 -226 -376 -286 159 244 -87 -357 -173 -221 150 74 -141 -102 -595 -475 266 390 -280 580 364 -1240 -692 -119 732 113 -69 -243 76 224 -154 -84 -822 -795 243 956 433 -152 -522 -703 -21 -34 242 -130 -317 40 54 -117 8 -102 -355 -110 -35 -101 -23 13 -269 277 -251 -466 -60 687 -464 -791 260 110 320 -135 -116 -774 75 297 188 39 -393 21 -204 -169 -61 58 -193 165 -279 -104 278 -308 -70 -162 -162 -77 246 36 -100 -309 -43 -100 199 90 -330 -99 -164 -214 -104 905 64 -907 -218 125 378 -90 -173 -204 -41 209 204 -268 -364 -33 83 264 -440 -19 -42 -83 125 23 290 -438 -617 -239 261 484 245 74 -407 -783 -84 637 310 -102 -165 -726 119 271 940 -398 -1087 42 146 493 -83 -84 -472 -176 214 64 123 9 -291 -65 -307 14 137 315 -138 -350 185 13 46 -438 -134 102 40 38 37 117 118 -387 -355 292 330 -548 344 491 -530 -177 -171 309 89 24 62 -254 -329 156 270 -162 0 175 -4 -151 -72 -215 323 3 24 -16 -152 -114 40 429 -149 -183 -60 -75 361 9 -213 -210 -211 12 1044 -408 -934 309 232 17 -37 155 -75 12 -264 192 73 -96 44 -165 -54 101 35 65 92 -38 -101 -66 -33 -42 237 25 44 44 -111 -81 -196 161 181 88 249 -411 -424 21 584 186 -296 -35 71 18 -52 130 69 -94 -149 -31 198 70 156 -154 -155 -93 132 283 -72 -33 38 -22 -281 384 -129 76 -29 179 -83 -219 -25 -57 346 192 198 -188 -340 -397 199 765 473 -640 -54 49 23 48 152 132 14 -191 -73 27 212 307 -165 -107 -239 197 106 156 70 -29 -139 78 -200 51 84 157 204 -170 -95 -54 155 106 -86 -197 33 26 1019 -578 -816 13 332 410 89 70 -288 -17 -15 160 -38 10 30 266 39 -215 184 27 -133 -15 54 148 186 -231 105 100 9 -9 -99 104 190 116 -190 76 -21 497 75 -164 -628 -76 734 -77 37 -232 148 14 30 144 182 87 -301 -366 415 501 214 -157 -247 -77 -12 262 -4 254 132 -298 200 312 -47 -37 -158 -224 413 143 146 -113 126 36 76 -236 -102 47 491 836 -803 -147 -118 325 283 104 68 148 -240 -300 242 57 434 127 -20 -251 -66 159 205 -47 28 207 -33 43 182 -19 -3 165 45 -150 -48 243 353 402 -67 -170 -306 -100 -4 932 724 -905 -7 102 322 263 -154 14 167 -130 113 181 127 -74 97 274 82 10 -115 -93 226 149 302 167 -145 -4 -160 258 102 139 58 146 187 65 -137 -85 -137 14 362 1116 -214 -916 155 0 361 205 95 -38 151 82 167 -142 -157 -39 415 404 5 -115 -169 125 329 47 13 46 41 298 136 65 -265 102 213 234 109 -72 392 -140 -360 -53 354 868 -374 -400 97 189 229 192 7 32 -78 16 185 199 115 98 129 -266 24 171 210 153 45 52 97 99 -53 64 190 104 -38 207 -73 222 169 173 22 -353 37 70 1020 74 -785 162 127 180 214 51 -101 39 243 131 -84 -29 220 259 -70 -9 142 46 108 29 359 -158 -146 287 60 237 130 -203 -56 106 275 166 17 87 97 74 -142 475 -35 -564 316 401 -42 250 -68 199 0 -74 147 0 129 161 285 -17 18 -53 217 135 121 -150 14 327 100 201 -77 -74 142 244 4 114 20 273 -25 -216 -36 822 574 -669 -215 -6 284 315 321 2 -249 47 220 153 -20 37 196 224 -88 -38 66 278 178 -69 145 181 32 32 -20 143 -60 219 228 247 156 -85 -237 -334 222 882 724 -753 -46 -5 305 243 165 100 -50 37 113 282 -71 174 82 90 -95 32 216 206 37 79 38 87 156 160 -147 102 -24 334 227 133 18 -181 -6 -43 91 186 839 -482 -195 139 -40 -85 361 542 74 -82 -321 138 223 193 8 -79 159 252 21 29 101 74 -25 121 217 0 179 -168 -115 509 172 -14 -100 98 -19 -218 225 1288 122 -957 -344 205 532 341 54 -195 82 -88 223 189 -14 111 256 44 165 -132 -67 51 190 475 -95 -17 187 103 -190 -50 176 405 184 153 -85 -52 -53 12 -166 783 693 -661 -69 13 280 141 480 -75 -123 -5 177 372 0 -55 287 37 -25 70 -72 37 304 262 196 -177 -41 99 109 255 -121 122 160 227 149 10 -129 134 -147 -158 665 829 -447 -581 118 56 578 66 90 -59 -103 82 72 268 200 76 96 3 13 102 84 123 -18 136 248 23 102 112 -44 14 -144 402 301 -15 -47 1 393 167 -42 -384 -169 -20 1190 406 -843 -118 121 178 159 161 -63 319 65 -208 129 229 313 -182 -103 264 176 -140 8 208 216 130 -98 -19 325 65 42 58 -114 241 294 211 -54 -58 178 -14 -76 -73 257 1126 -760 -526 355 258 168 80 327 -241 -69 147 -7 131 316 -78 146 92 52 -41 17 189 80 265 129 40 -63 207 127 -90 27 49 265 -62 124 424 -77 85 -38 -207 -326 324 1216 -121 -507 318 128 -20 257 -127 397 189 -375 163 212 45 237 -52 77 132 -94 167 -97 163 340 -86 158 29 90 136 9 22 114 236 -261 217 356 361 -403 45 92 254 -239 -489 879 373 -94 45 -58 -222 190 321 169 -127 38 -64 207 304 18 38 4 229 -128 -95 143 432 184 -43 -51 -172 354 197 -176 23 274 101'],['VivowatchSE-SNC-0003']
['2020-08-21 15:01:31'],[16.0],['140 254 28 -234 -376 -196 365 -33 -241 -201 -661 -328 361 1012 -25 -1100 -300 -18 143 48 -96 -82 -219 -7 30 -124 -71 -108 -214 -102 100 0 -265 15 148 -345 6 309 -415 -107 22 -123 275 57 -546 -338 -12 -413 837 463 68 -312 -1201 -1004 357 544 1816 473 -1740 -729 -380 154 106 230 736 166 -362 -627 -439 305 -50 -45 194 17 94 -232 -109 -20 -193 -76 -131 267 302 -456 47 334 25 -235 -422 -231 297 265 220 -203 -357 9 166 57 -284 -220 -375 932 83 -992 124 -133 -11 105 291 48 -242 -357 -13 345 -38 -172 -63 133 124 -39 -260 -86 133 181 39 82 -264 -142 -68 105 19 263 19 -109 -106 -289 -240 -71 314 516 310 -206 -445 -525 -15 190 72 992 259 -1143 237 -53 -162 75 246 45 67 11 42 -72 -299 -48 -25 380 325 -134 -313 -181 213 201 -246 -29 129 152 -35 -224 21 10 144 111 -181 9 106 24 -61 -63 41 363 81 -176 -208 -179 -10 -197 1024 577 -1077 -346 124 120 132 62 152 -34 91 -107 -147 -68 114 176 96 -140 -16 253 -170 54 14 -100 -5 -23 -8 386 38 -177 -195 -1 227 -101 93 -3 23 59 92 199 -42 -176 -58 -20 -348 -126 1447 -168 -901 -27 -196 215 149 176 236 57 -405 -321 310 227 79 63 -68 -30 102 -65 -184 -80 427 99 82 -4 -150 54 77 32 -48 19 141 -4 -94 168 339 -43 -224 20 -224 -175 -54 1108 789 -962 -554 12 305 85 94 182 82 -94 40 175 -126 -50 94 45 134 299 -95 -94 93 -186 133 363 62 -29 -99 -95 158 223 86 -10 -103 -8 91 124 69 -102 17 247 95 -11 -21 36 -208 -127 16 1103 399 -1043 71 -112 77 377 174 201 -4 6 -151 -100 65 206 91 140 47 -33 30 -10 63 -100 178 192 81 13 -90 104 68 38 52 30 -19 -136 326 101 109 78 -115 83 -38 -140 -37 299 336 219 -165 117 -243 -252 -162 817 160 -624 284 -48 114 -122 90 205 49 85 191 124 -178 -10 -71 176 161 50 250 25 -237 -40 175 -17 256 61 -8 70 -45 18 94 171 58 -42 66 50 75 -5 100 20 -51 199 155 174 -11 -155 -188 -136 182 1308 -142 -710 163 -167 163 127 150 163 129 7 20 -132 9 151 93 183 18 -77 -40 205 192 -10 -39 61 54 -21 216 -1 129 37 120 124 -82 -164 100 102 248 238 -16 68 -59 -48 -301 -170 944 441 -478 203 -162 67 140 -120 278 222 -2 -172 23 286 -82 57 92 9 95 92 35 -187 190 246 -22 61 26 60 -128 91 285 108 -54 74 -50 52 26 32 308 59 13 7 -49 -288 -67 1022 582 -801 -302 226 80 197 160 23 -94 33 116 115 19 -75 204 40 65 139 -62 -194 295 178 142 64 -239 110 139 72 -4 166 -86 4 315 232 -97 -204 -116 85 128 366 233 -37 -222 -80 -150 -237 653 993 -465 -714 278 35 182 37 82 135 167 19 -77 -109 150 178 20 95 -76 215 195 28 -142 -99 47 179 273 119 -24 6 -209 70 162 136 261 20 -45 -83 95 -74 -120 273 535 -58 -262 -134 -184 -349 1049 900 -798 -541 -73 197 500 47 -3 -80 -107 40 73 186 43 -6 130 156 -33 45 -9 -2 -126 120 326 41 91 -142 -66 -79 207 202 121 78 -13 -83 8 161 -2 143 104 -50 213 184 53 -324 -278 -175 761 1191 -661 -393 -74 -352 335 380 292 26 -174 -14 43 9 -59 83 246 63 109 -201 111 118 7 35 29 63 134 44 -3 60 58 112 59 116 -189 -44 50 67 337 123 174 -14 -279 -315 -31 1 1067 741 -818 -145 -215 22 227 232 265 124 -171 -99 50 -39 204 63 22 121 -17 62 -54 13 312 113 -90 73 -287 214 274 45 52 -20 75 154 -147 26 182 -70 207 -46 -49 131 208 60 -151 167 185 -160 -306 -41 1195 -403 -668 140 125 271 -43 147 13 154 -14 -212 43 228 224 131 -26 -153 131 1 -100 93 105 353 -4 -42 -129 -136 168 93 125 71 131 -105 5 128 49 142 -57 -73 80 142 -55 107 180 126 19 31 -200 -174 -254 517 1268 -369 -552 -169 170 194 174 402 -7 -137 -235 80 41 38 223 71 21 103 78 -234 62 68 132 217 24 76 40 -140 -126 77 86 299 130 -147 39 10 -169 65 130 167 74 0 38 94 38 -31 31 -73 -141 -188 827 992 -628 -996 -7 214 398 346 53 -53 -198 -56 163 64 60 -14 -39 192 74 -49 43 78 81 22 -60 159 8 48 66 -14 124 22 211 -71 -122 112 84 -233 -29 478 157 195 -26 -454 -544 21 1050 495 -547 79 98 -148 -81 12 324 93 32 -4 8 -41 125 52 39 41 -126 301 -93 -9 144 12 81 119 -85 -18 -8 -114 198 274 249 108 -277 -263 -161 117 214 160 307 308 15 -195 -665 -353 230 1374 712 -978 -45 -172 -53 399 221 -11 -23 -177 235 205 71 -199 8 194 47 114 -11 34 83 -68 37 35 56 179 -16 11 2 68 -2 -101 204 194 146 -170 -93 80 -7 50 159 137 67 28 56 -28 -175 -383 112 1372 -561 -391 -11 -249 230 345 57 -124 -44 195 52 -67 100 -98 -12 51 110 232 41 -203 -21 -15 71 204 18 38 89 -153 60 71 -67 81 234 113 120 -104 -239 -43 173 286 126 162 -102 -88 -37 -153 -35 -299 1207 476 -999 -81 -73 -51 206 259 123 117 -70 -140 -42 158 27 37 66 -57 154 146 -40 -106 195 -40 30 -72 119 -89 74 418'],['VivowatchSE-SNC-0003']
['2020-08-25 14:49:23'],[16.0],['192 -98 -31 320 342 515 342 -29 130 217 405 191 183 21 284 265 481 461 -60 81 515 930 -426 37 447 423 255 -46 84 273 486 538 192 -98 -31 320 342 515 342 -29 130 217 405 191 183 21 284 265 481 461 -60 81 29 292 461 391 103 -15 314 -99 1048 211 -589 342 424 343 148 236 103 179 576 328 -362 100 501 693 214 -290 -206 519 587 303 175 230 29 292 461 391 103 -15 314 -99 1048 211 -589 342 424 343 148 236 103 179 576 328 -362 100 501 693 214 -290 -206 519 587 303 175 230 169 -32 282 324 364 204 241 146 25 298 462 308 328 86 3 -229 414 1478 89 -391 198 171 406 275 259 258 167 121 97 616 620 -2 -57 259 225 151 340 334 314 104 281 397 262 111 193 189 81 408 440 458 168 -26 315 48 373 270 165 -53 913 943 -615 -227 219 433 -57 259 225 151 340 334 314 104 281 397 262 111 193 189 81 408 440 458 168 -26 315 48 373 270 165 -53 913 943 -615 -227 219 433 446 463 209 129 69 118 385 178 266 184 364 397 171 77 240 153 213 403 278 242 243 194 146 229 369 95 196 235 376 485 103 99 6 325 106 828 95 -183 314 160 287 189 387 176 301 382 209 18 181 272 346 275 273 304 280 116 57 265 300 255 272 208 344 216 6 325 106 828 95 -183 314 160 287 189 387 176 301 382 209 18 181 272 346 275 273 304 280 116 57 265 300 255 272 208 344 216 231 230 136 103 266 445 498 213 -207 -188 866 1155 -327 -229 79 223 348 495 632 306 -101 -142 205 348 309 366 308 364 306 -199 30 535 231 230 136 103 266 445 498 213 -207 -188 866 1155 -327 -229 79 223 348 495 632 306 -101 -142 205 348 309 366 308 364 306 -199 30 535 173 274 287 202 175 280 250 178 263 223 156 218 100 399 532 156 97 -361 1053 664 -604 34 303 402 441 372 216 -12 -55 153 477 299 173 274 287 202 175 280 250 178 263 223 156 218 100 399 532 156 97 -361 1053 664 -604 34 303 402 441 372 216 -12 -55 153 477 299 264 179 273 161 237 175 208 416 142 159 179 286 365 97 171 238 316 426 36 169 246 42 147 76 1082 638 -740 -79 278 455 418 337 125 11 214 255 190 184 361 468 94 -93 160 174 400 277 239 228 204 394 180 113 -98 142 468 198 440 448 130 157 -6 -210 148 209 125 11 214 255 190 184 361 468 94 -93 160 174 400 277 239 228 204 394 180 113 -98 142 468 198 440 448 130 157 -6 -210 148 209 1141 526 -487 -39 141 264 155 352 402 238 263 84 118 212 68 398 344 238 189 136 111 182 137 276 299 308 252 47 188 153 141 -18 1141 526 -487 -39 141 264 155 352 402 238 263 84 118 212 68 398 344 238 189 136 111 182 137 276 299 308 252 47 188 153 141 -18 462 408 394 271 -31 -135 61 23 585 1360 -539 -180 121 67 325 334 411 272 125 86 71 142 233 252 360 197 225 156 105 276 163 172 219 328 199 218 120 104 248 148 190 216 314 337 361 3 11 170 74 100 915 476 -308 225 72 273 265 236 81 172 411 260 173 93 219 328 199 218 120 104 248 148 190 216 314 337 361 3 11 170 74 100 915 476 -308 225 72 273 265 236 81 172 411 260 173 93 49 191 357 361 203 -40 158 243 342 290 186 174 91 108 93 332 256 308 118 361 115 20 103 -25 157 1135 549 -751 -124 289 361 268 276 191 276 287 -149 -328 438 613 218 287 106 151 -21 -68 254 315 446 89 88 206 181 259 24 -12 156 341 375 323 70 1 238 91 276 191 276 287 -149 -328 438 613 218 287 106 151 -21 -68 254 315 446 89 88 206 181 259 24 -12 156 341 375 323 70 1 238 91 50 -44 662 923 -482 -246 363 241 233 96 212 60 247 541 22 -74 -216 243 630 364 12 -22 211 139 137 167 167 287 168 78 164 287 50 -44 662 923 -482 -246 363 241 233 96 212 60 247 541 22 -74 -216 243 630 364 12 -22 211 139 137 167 167 287 168 78 164 287 182 87 -44 41 292 271 246 202 252 157 -144 78 -262 512 998 -210 13 117 63 181 101 114 189 466 50 -76 180 207 233 136 -117 193 233 299 438 101 -120 -47 77 256 234 343 240 137 0 -32 -51 89 261 210 338 326 207 -72 -50 -129 75 -5 843 816 -534 -27 67 191 233 299 438 101 -120 -47 77 256 234 343 240 137 0 -32 -51 89 261 210 338 326 207 -72 -50 -129 75 -5 843 816 -534 -27 67 191 60 169 274 292 74 -51 89 209 52 133 303 69 242 72 29 50 77 321 277 110 105 139 62 -5 109 356 -22 7 140 320 440 -33 60 169 274 292 74 -51 89 209 52 133 303 69 242 72 29 50 77 321 277 110 105 139 62 -5 109 356 -22 7 140 320 440 -33 115 -99 -124 -276 668 1146 -445 -8 -148 22 212 61 324 427 130 28 -83 -102 244 150 238 134 248 90 1 176 10 140 246 153 63 83 115 -99 -124 -276 668 1146 -445 -8 -148 22 212 61 324 427 130 28 -83 -102 244 150 238 134 248 90 1 176 10 140 246 153 63 83 72 200 187 92 101 89 31 141 169 213 50 -26 -141 570 693 -533 -51 34 293 377 253 120 -23 -57 30 58 240 258 63 133 120 120 85 128 -108 42 144 256 230 242 32 -26 -90 -21 108 239 190 152 79 117 157 149 -184 -250 -47 223 1036 454 -556 -232 -28 21 233 452 85 128 -108 42 144 256 230 242 32 -26 -90 -21 108 239 190 152 79 117 157 149 -184 -250 -47 223 1036 454 -556 -232 -28 21 233 452 279 -1 -116 -140 125 137 30 106 278 236 190 32 -104 -266 -23 386 308 393 -56 -48 -90 2 92 151 64 6 241 223 170 133 -248 -22 10 66 80 751 105 -758 -77 105 412 184 -8 201 11 62 100 -73 93 -22 268 127 -31 213 78 0 -44 -65 58 260 -1 231 107 13 10 66 80 751 105 -758 -77 105 412 184 -8 201 11 62 100 -73 93 -22 268 127 -31 213 78 0 -44 -65 58 260 -1 231 107 13 28 21 163 -280 7 130 283 332 101 -32 -200 -211 -275 1003 -183 -252 326 -130 46 -69 158 201 197 39 60 -97 -78 0 357 221 72 151 28 21 163 -280 7 130 283 332 101 -32 -200 -211 -275 1003 -183 -252 326 -130 46 -69 158 201 197 39 60 -97 -78 0 357 221 72 151 -228 97 83 0 -61 112 363 156 7 -114 -16 -176 90 398 202 114 -9 -97 110 22 -213 51 842 65 -515 143 66 261 202 229 -49 -226 -135 127 186 118 148 137 37 -20 50 -127 108 32 143 211 135 30 -33 -67 61 99 152 126 -17 -25 81 89 160 144 -8 -14 -48 -231 -135 127 186 118 148 137 37 -20 50 -127 108 32 143 211 135 30 -33 -67 61 99 152 126 -17 -25 81 89 160 144 -8 -14 -48 -231 74 1148 -448 -444 -50 13 296 325 -20 -70 150 -41 -79 77 252 66 -101 -168 317 236 32 21 -134 62 191 -55 197 55 -90 263 138 -47 -12 9 105 -62 145 118 267 31 -115 97 -166 -116 232 967 -200 -632 127 10 229 214 109 28 0 -8 -12 9 105 -62 145 118 267 31 -115 97 -166 -116 232 967 -200 -632 127 10 229 214 109 28 0 -8'],['VivowatchSE-SNC-0003']
['2020-09-05 11:35:02'],[16.0],['-618 -716 -644 -838 894 -881 -1090 219 -388 -540 -332 -341 -487 -255 -919 -534 183 0 -47 -273 -902 -1800 -72 174 688 72 -844 -861 -339 -92 -448 -415 -605 -542 140 90 -98 -725 -811 1036 -1824 -1282 44 110 412 698 -742 -1032 -624 -1570 -604 180 984 503 428 -413 -2333 -2156 -120 925 628 732 575 -409 -1391 -1349 -1601 -640 985 702 1270 -123 -1030 -1909 -1267 -87 382 865 41 -937 -509 -769 -265 945 252 -265 -792 -811 -320 -748 -805 686 157 912 987 -1239 -2803 -1598 374 440 621 403 -127 16 75 -886 -1014 -1327 -509 151 1495 1280 -879 -715 -808 -794 -536 -72 558 72 -388 94 -381 -703 71 96 -521 -297 -268 -167 72 -13 -17 -487 -494 -297 -14 -61 -34 -324 -29 -87 -268 -493 -168 -182 175 33 -431 127 -194 -284 -558 -5 157 106 -355 -540 -433 -349 672 246 -45 -616 -778 -290 -48 351 -70 244 118 -326 -733 -339 -18 172 -51 -23 171 -223 -665 -331 -161 64 1068 -1028 -671 -275 -336 257 502 -29 -187 -474 -436 -28 -2 194 -46 -12 -494 -270 116 359 -14 8 -438 -755 1 271 444 94 -552 -372 -146 210 389 -54 -1218 -1268 1996 458 -585 -380 -521 -527 -471 265 1185 1282 -787 -2312 -325 499 778 394 -80 -353 -2024 -1311 789 2620 2505 -1077 -3416 -913 474 -944 -2138 151 5763 5185 -1378 -4453 -5565 -4947 296 2412 4253 2948 3264 5596 -4273 -11568 -8612 -1184 6768 6600 -4569 7024 13181 595 -13845 -16481 -2961 4978 11442 10736 2254 -4582 -5286 -3665 -2185 -488 847 702 3439 1644 106 -739 -2064 -874 -382 -1055 -343 643 711 70 -854 1112 1445 87 -1372 -1741 -246 416 61 94 -150 -659 404 1075 1784 140 -2335 -3124 -1497 206 1236 2826 3259 637 -2106 -4857 -4477 779 2642 2861 2168 -79 -1850 -2765 -2115 -1379 927 2861 1701 -105 -821 -1927 -1001 186 -134 813 431 128 -179 -46 -1514 -1296 -718 462 2893 45 -865 -2126 -2012 -1002 778 1773 1734 100 -1650 -1686 -467 -369 -582 0 1703 1823 -1734 -2676 162 207 -459 395 4 -314 1203 2220 -1474 -3045 -3566 -859 2544 3710 3444 1720 -1494 -3306 -6060 -6170 -3336 5944 13430 6407 -5461 -11651 -7016 -2107 2154 4051 5481 2946 -532 -2092 -3320 -2449 -1123 1142 1216 -492 1385 1305 425 -416 -1425 -1430 -644 -239 -57 330 859 1384 91 -1173 -2143 -1735 124 2289 1117 188 -1306 -2717 -967 374 808 817 663 197 -935 -757 -1155 -1182 -798 1066 1581 148 162 -1081 -1041 -826 -250 -177 800 -87 -547 -403 -682 405 1031 -35 -897 -1742 -2637 250 3019 1260 -1210 -1633 -1136 -27 173 -469 -223 215 111 -65 -184 -260 -867 211 791 -1253 -445 406 -193 304 566 -517 -564 -523 -342 226 124 -391 202 133 125 -716 -945 -153 240 446 192 -522 -612 90 -152 -305 -522 68 290 72 58 -573 -535 -527 193 67 -99 606 -61 -496 -688 -876 858 451 -333 -245 -175 -727 -132 1042 -130 -187 -242 -128 -478 -649 -243 446 664 158 -310 -524 -533 139 -425 -612 299 767 229 -215 268 -1692 -47 672 -185 -113 521 -380 341 179 -1095 -105 62 -558 221 319 539 965 -1087 -1375 -693 136 1244 426 563 -117 -1043 -1063 -492 505 1035 1187 -620 -1142 -741 -151 -437 434 1449 541 -1123 -1390 -166 35 357 236 -368 64 586 63 -257 136 -384 -67 -606 -585 138 585 210 879 581 799 -606 -1827 -5115 -3056 8680 4685 -1809 -1590 -1659 -1938 -639 1096 1328 1077 -584 -478 -435 272 439 332 -617 -699 -340 -378 1096 -300 -188 -121 886 1312 -83 -1428 -1460 -2607 1090 4014 397 -1585 -1607 1340 -1099 1133 1707 -2559 -3486 -56 1278 3754 742 -2896 -80 1212 -1322 -3750 882 3400 2512 -689 -460 -928 -1690 2352 554 -1046 -1224 980 1140 -1014 373 -158 -39 -13 195 -173 -302 -41 309 1346 -697 -960 255 419 496 263 -116 -488 -444 -21 905 534 27 407 -336 -666 174 177 257 503 227 371 -536 -569 417 281 342 318 208 -380 -1 -218 245 51 804 632 -433 335 -418 -245 -386 780 725 397 -192 -489 -114 -435 693 477 382 230 -322 -215 245 490 151 -177 -192 -44 720 459 173 -271 -363 31 435 299 -15 -73 688 554 -758 71 129 286 535 412 492 -201 -440 -1090 -526 -72 1291 858 1238 467 335 -572 -1441 -1635 -1290 -183 830 2444 3327 3266 566 -329 -5314 -4654 -5765 -344 627 9874 7800 12940 -1371 -930 -23381 -19907 -32000 12494 32000 -22467 -32000 -30138 -13807 2710 11745 12455 8681 3130 -4848 -7225 -7599 -2351 2950 7437 9195 5546 -2325 -11645 -13937 -15017 -1066 15735 32000 22909 -32000 -32000 3415 10701 18733 11285 2424 -3465 -4252 -7097 -4160 -2769 1298 2548 3789 1478 2571 -637 -240 -2068 -2912 -462 854 -1531 -903 882 3100 2865 -1277 -2460 -1646 -324 647 612 -567 -202 453 929 1106 -51 -1008 -1247 -2346 303 2667 542 -149 -530 -388 -191 -926 -534 -122 73 892 780 517 -632 -877 -2535 -152 2699 1144 -550 -1271 -85 -55 67 333 467 -1083 -431 65 177 -40 205 422 59 -302 -883 -2177 -1081 3313 1749 -683 -701 -1606 -1868 1002 289 661 570 -645 -323 159 324 595 -413 -2279 -2250 1600 3160 1623 -1171 -1642 -884 -115 -378 -544 -465 1591 1913 -836 -247 -699 -353 -1200 -268 829 -23 -111 637 492 453 -1641 -1138 603 -542 778 485 209 517 261 -908 -400 10 -218 -216 -505 -330 678 1777 409 1203 -338 -1496 -3223 -1772 -773 2221 1941 4271 1877 2427 -3010 -3309 -7217 -4241 -3845 1993 7788 14313 7060 4833 -9783 -13379 -32000 -32000 32000 32000 -16807 -17244 -26494 -9682 -4485 9135 7932 11356 2370 1178 -4641 -3542 -4416 -1474 -120 1354 -64 -901 -627 701 6088 7748 1049 -5822 -18165 -6121 8451 8991 7050 55 -4700 -6157 1064 679 -1269 -1003 1278 1983 1247 500 -321 -860 -1461 -1707 868 1039 667 -142 340 845 -376 -748 -295 -886 -586 405 869 904 1115 459 -931 -1783 -1721 646 1531 1735 1218 -441 -1360 -1305 -195 459 957 300 -345 135 194 527 -8 -770 -454 384 125 260 508 22 5 -77 -48 -10 -669 -465 770 678 510 173 -630 -793 -103 -139 681 837 50 -191 -209 -139 -77 -110 230 -38 1185 -114 -1451 88 300 671 465 -133 -542 -405 -105 143 576 351 -2 -22 277 -193 -324 57 171 186 282 284 203 -98 -66 -159 -95 230 393 101 -58 -40 -211 45 948 1480 -1171 -1654 -10 669 1061 316 84 -217 -491 -194 352 258 311 363 -84 -453 209 791 224 -50 104 -191 -149 -21 323 337 512 456 -125 -76 -226 -300 -31 161 861 1232 -380 -878 206 87 62 133 188 370 504 92 69 -147 -367 244 346 222 209 262 253 20 -35 -221 -76 478 398 164 333 213 122 1 -494 -205 55 440 1499 -373 -530 220 22 -25 -260 189 648 776 306 -64 -595 55 206 494 366 190 -17 -436 145 452 609 207 -288 -85 297 315 300 -37 -209 -91 1247 963 -1148 -592 407 624 475 411 -211 -308 165 3 214 292 352 687 273 -342 -620 -449 314 562 792 403 359 -24 -532 -108 -157 299 222 501 -94 737 1088 -1082 -544 -715 90 1158 464 75 27 94 19 312 95 29 -52 -50 296 269 87 588 446 -250 143 172 -425 -41 702 314 304 219 -54 -173 759 8 -775 323 778 150 236 11 -360 -9 376 736 -17 342 -210 624 -556 -592 348 724 698 694 -453 -971 143 567 564 -72 113 550 443 41 -431 -577 1168 80 0 153 177 208 143 130 142 184 -144 72 473 397 87 113 -19 -13 32 434 211 211 268 297 -306 54 532 -99 -17 159 445 722 143 -362 -226 -159 20 1439 847 -927 -212 423 219 6 -133 384 454 217 -86 51 263 250 52 270 -46 155 205 -20 221 381 250 -225 262 77 81 230 59 186 235 596 -1 -250 170 206 -19 629 624 -760 251 334 245 391 208 101 -30 -67 78 266 254 421 94 1 138 -91 345 364 -70 -166 200 483 176 310 -16 105 173 101 294 98 268 -575 54 -132 309 -23 95 284 923 556 1118 -89 -1833 -1804 -1198 73 985 3066 3358 2465 -930 -1713 -5352 -3494 -3897 1695 2132 9869 5737 10381 -4009 -2961 -23617 -14894 -32000 18142 32000 -30459 -32000 -28873 -11353 1964 10581 13522 10175 5322 -2811 -4191 -7650 -3907 -3129 2003 2036 5208 2366 2234 -1070 -1255 -2902 -1982 -1380 -112 683 1506 2439 1083 1048 -520 -763 -3009 -1003 -2640 1476 -145 4629 1620 4765 -354 338 -9826 -4658 -14888 -4278 32000 -20579 -20788 -9112 -4559 5951 3518 3928 385 1154 -2192 538 -2486 -628 -1887 567 -89 1896 1017 1170 -376 -1370 -2526 500 1721 -296 -1177 -81 321 924 458 -797 -654 29 464 299 -455 -352 406 -11 106 -376 10 229 58 -195 -154 -443 -539 306 313 480 -343 -428 -491 302 169 -223 -156 -249 112 253 105 -560 -107 -654 141 425 -471 228 -39 -383 -440 183 210 75 -150 -428 -213 129 226 75 14 -545 -500 291 263 -53 -506 -77 230 191 -149 -388 -312 -228 42 414 68 -76 -373 -475 18 233 127 -349 -185 80 61 -131 -150 -2 -456 429 512 -893 -90 45 11 167 135 14 -233 -495 -266 86 189 165 42 35 -308 -472 -204 206 219 211 0 -571 -448 406 335 -153 -292 -337 189 15 71 -131 -261 -49 -17 -111 167 225 135 -281 -714 -242 247 1164 -134 -911 -26 127 -37 -233 66 -17 63 -200 -238 357 160 -152 -301 -164 -255 284 351 -71 -36 -375 -12 198 23 -118 -327 39 372 -20 -66 44 -203 -104 -157 140 -219 12 381 236 -330 -515 -365 298 697 -670 251 154 -141 -206 -197 349 35 -289 113 -173 -293 235 282 132 -185 -201 -470 327 70 131 85 -259 -116 -60 391 79 -386 18 -121 2 283 48 -147 -146 39 196 10 -204 -279 -293 1063 -588 -506 117 14 498 67 -234 -562 275 93 -115 -24 367 9 -333 -1 103 169 -310 -190 237 54 116 -93 105 101 -131 312 -355 -303 -147 549 353 26 -108 -380 -4 116 -186 33 741 -467 -38 279 116 29 -307 -112 136 188 42 -117 130 35 6 50 -412 238 251 62 -180 -73 332 -57 -58 -333 300 130 184 360 -590 -231 125 -71 605 148 -104 -227 -540 283 667 603 -592 -736 617 699 -211 -647 -557 323 870 -116 256 -282 -906 -110 749 294 118 -174 -556 99 414 203 -178 -64 -96 80 -94 106 483 -158 -328 268 201 -134 52 -303 -213 -257 1409 631 -1053 -306 -320 126 216 456 382 -167 -230 -103 28 -203 337 101 172 325 -203 15 -275 31 436 -18 239 5 -121 22 2 1 245 384 -65 -107 -223 150 -291 671 641 -661 -93 30 225 214 16 85 -219 -3 110 278 385 21 -343 -254 289 -143 309 354 -75 73 45 -247 123 152 -41 -171 468 597 -184 -467 -39 400 91 -149 -159 1064 -459 -520 359 108 390 -136 -98 65 104 -397 409 195 69 440 -350 25 37 -145 152 285 86 47 481 -357 -202 259 -220 170 315 475 241 -156 -512 -215 -28 1110 1095 -1035 -365 132 334 569 227 58 -454 -148 53 249 662 292 -460 -60 37 269 182 -252 409 -80 145 194 -322 182 221 146 -93 -327 375 287 35 318 -332 -104 -144 1184 -389 -704 229 -107 379 211 349 -58 -140 -318 172 331 240 76 -190 -61 306 112 35 314 18 -103 -2 -65 527 -68 -257 246 340 148 204 -205 -454 -289 328 1600 -457 -739 28 118 -159 445 458 -62 -341 -163 141 248 343 33 165 -244 -127 44 366 140 -14 164 188 36 -108 185 10 92 64 263 200 -132 -28 -212 197 -100 1156 449 -1181 -420 320 718 -34 -129 104 399 271 -190 -138 -329 339 248 399 354 -178 4 32 -13 -86 579 -350 150 415 -10 182 261 -424 -58 298 386 392 -258 -122 -436 764 1544 -777 -959 114 207 510 533 349 -179 -405 -45 110 316 419 93 248 -124 -165 11 224 86 170 356 116 -28 53 -99 135 424 -38 -92 228 237 247 48 -155 -112 -42 29 1052 12 -538 39 152 56 225 76 457 227 -502 -160 297 691 254 -149 -193 -27 136 150 90 367 459 -261 57 114 137 281 -304 -115 447 602 273 -98 -356 -79 -151 -15 1094 652 -448 -167 -189 -191 369 489 538 148 -514 -51 72 373 403 225 -39 88 88 -203 -201 201 733 131 99 -305 -134 212 363 -9 -40 396 35 -94 228 367 232 -27 -190 -192 13 1379 184 -925 303 268 239 -94 17 169 274 368 -334 -52 397 349 -53 174 85 23 -35 54 314 -53 236 443 159 -57 -27 -68 172 124 141 247 160 179 163 39 -114 -157 200 -219 1308 305 -910 19 -56 477 157 323 25 -32 -64 -35 101 363 676 -65 -298 -12 44 422 108 209 -44 -4 375 11 169 -250 207 288 -53 -28 204 532 331 119 -505 -407 173 1201 421 -677 122 157 210 207 163 -90 40 75 334 197 107 87 -17 181 163 -113 196 254 45 135 67 259 68 209'],['VivowatchSE-SNC-0003']
['2020-09-30 06:26:44'],[16.0],['59 1219 912 -398 -550 -380 -536 -566 -802 -646 376 141 -65 324 -392 -706 -695 -538 -36 -398 -510 317 45 106 275 -581 -1742 -2226 1716 1373 -370 -733 -566 -312 -49 -390 -699 -288 -275 -138 441 112 -373 -521 -1051 -335 -86 302 -287 -499 -118 45 -135 -395 -343 -651 -542 -340 342 353 37 -346 -773 -753 61 -745 -84 642 -165 -283 -6 -604 -533 -236 -856 -115 698 164 -175 -846 -928 11 154 90 -135 -395 -343 -651 -542 -340 342 353 37 -346 -773 -753 61 -745 -84 642 -165 -283 -6 -604 -533 -236 -856 -115 698 164 -175 -846 -928 11 154 90 -729 -662 190 354 10 -730 -389 -264 -354 -722 826 581 -889 -466 -287 -124 -399 -86 248 14 -328 -488 -557 -128 457 -82 -161 -202 -455 -407 -70 138 -53 -672 126 230 -95 -112 -549 -570 -131 183 139 70 -414 -191 -467 132 -142 -244 -151 -229 -35 43 180 -561 -692 -599 1132 140 -638 -415 -263 -225 -53 -672 126 230 -95 -112 -549 -570 -131 183 139 70 -414 -191 -467 132 -142 -244 -151 -229 -35 43 180 -561 -692 -599 1132 140 -638 -415 -263 -225 -182 428 -206 -81 -96 -177 -79 -207 -409 -329 -128 -345 774 555 -542 -426 -613 -790 204 483 192 47 -37 -489 -338 -286 195 -234 -318 -48 511 170 -182 428 -206 -81 -96 -177 -79 -207 -409 -329 -128 -345 774 555 -542 -426 -613 -790 204 483 192 47 -37 -489 -338 -286 195 -234 -318 -48 511 170 -596 -295 -488 -244 374 210 -87 -359 -502 -456 898 21 -730 17 -80 -377 -209 362 162 189 -272 -882 161 226 -126 62 -269 -181 134 31 -226 -335 -596 -295 -488 -244 374 210 -87 -359 -502 -456 898 21 -730 17 -80 -377 -209 362 162 189 -272 -882 161 226 -126 62 -269 -181 134 31 -226 -335 -164 18 125 -91 -113 24 -348 -343 261 96 12 -212 -267 -144 -89 31 50 -79 -116 195 -182 -340 -9 -193 -164 -172 448 681 -653 -500 -93 -97 -5 133 236 -50 -420 -305 179 89 144 -33 -519 -602 608 506 -77 -453 -349 -336 332 218 289 -163 -607 -16 -31 63 -7 128 -41 -311 283 -123 -5 133 236 -50 -420 -305 179 89 144 -33 -519 -602 608 506 -77 -453 -349 -336 332 218 289 -163 -607 -16 -31 63 -7 128 -41 -311 283 -123 -346 -119 130 113 -68 126 -193 18 -240 -45 35 -179 197 -199 -146 281 -154 88 -335 -391 211 597 23 -42 -761 -1036 513 575 242 894 54 -1407 -346 -119 130 113 -68 126 -193 18 -240 -45 35 -179 197 -199 -146 281 -154 88 -335 -391 211 597 23 -42 -761 -1036 513 575 242 894 54 -1407 -954 -325 1428 386 -1058 56 946 216 -466 -1007 -522 466 480 -190 974 -14 -738 282 -726 -256 -91 558 426 -366 169 275 -356 -390 -119 -92 18 534 211 -313 -128 -198 -105 13 -207 477 228 62 28 -338 -388 -166 336 527 250 -101 -512 -349 99 -285 572 868 -545 -581 -82 2 -31 302 379 -185 211 -313 -128 -198 -105 13 -207 477 228 62 28 -338 -388 -166 336 527 250 -101 -512 -349 99 -285 572 868 -545 -581 -82 2 -31 302 379 -185 -426 -4 -271 173 100 317 267 40 -315 -354 -466 -143 -98 190 1224 1274 280 -1004 -2217 -1946 -94 255 2998 3863 1435 -3390 -5106 -1870 1935 1178 1778 2088 68 -1107 -959 -838 -1181 -221 450 2173 884 -538 -635 -1019 -1019 240 1053 330 143 -612 -454 -129 686 522 -261 -252 -175 -72 231 246 -191 -229 40 372 68 -1107 -959 -838 -1181 -221 450 2173 884 -538 -635 -1019 -1019 240 1053 330 143 -612 -454 -129 686 522 -261 -252 -175 -72 231 246 -191 -229 40 372 19 -386 461 522 -819 -588 346 338 80 231 137 -262 -12 -260 -268 237 476 430 -149 -500 -31 15 -188 -161 537 774 -21 -291 -248 201 -296 -615 19 -386 461 522 -819 -588 346 338 80 231 137 -262 -12 -260 -268 237 476 430 -149 -500 -31 15 -188 -161 537 774 -21 -291 -248 201 -296 -615 -399 141 1017 1641 34 -980 -1698 -671 891 399 555 -282 -164 610 1600 -170 -1900 -651 -18 698 885 589 504 -141 -499 -323 -386 -616 235 761 633 418 -183 -145 -87 -79 118 -612 -789 545 1124 694 145 -1027 -1023 537 -86 -43 713 74 -304 253 416 -514 -101 -63 -552 497 508 115 -282 -372 340 189 -183 -145 -87 -79 118 -612 -789 545 1124 694 145 -1027 -1023 537 -86 -43 713 74 -304 253 416 -514 -101 -63 -552 497 508 115 -282 -372 340 189 322 -230 -405 -32 -76 479 231 154 158 -30 -311 -571 328 551 160 209 -351 -465 993 -225 -337 294 21 47 -170 -203 244 376 272 202 -58 -72 322 -230 -405 -32 -76 479 231 154 158 -30 -311 -571 328 551 160 209 -351 -465 993 -225 -337 294 21 47 -170 -203 244 376 272 202 -58 -72 -416 -12 61 -225 578 681 408 -209 -783 -599 530 549 -183 73 -45 203 639 136 -585 -864 -320 -616 2366 1517 -1160 -999 -282 -24 -116 541 163 197 -416 -12 61 -225 578 681 408 -209 -783 -599 530 549 -183 73 -45 203 639 136 -585 -864 -320 -616 2366 1517 -1160 -999 -282 -24 -116 541 163 197 531 455 243 -976 -1165 -807 484 1541 1272 756 -1381 -1289 -553 -200 628 1201 859 -184 -592 -662 392 271 -186 -264 337 431 5 -182 674 250 -1286 -204 300 976 630 836 147 311 -1514 -994 -1649 -18 160 2360 1798 3241 142 -520 -3580 -4644 -4719 -927 2433 5041 8775 4929 3356 -4982 -6863 -16835 -7397 -12435 11679 10449 300 976 630 836 147 311 -1514 -994 -1649 -18 160 2360 1798 3241 142 -520 -3580 -4644 -4719 -927 2433 5041 8775 4929 3356 -4982 -6863 -16835 -7397 -12435 11679 10449 32000 13905 29755 -23297 -27744 -32000 -6377 32000 30120 -31652 -32000 -32000 -21933 2876 18864 18966 16044 6854 -108 -11280 -8480 -12964 -2597 -656 6925 4891 8234 921 818 -4097 -2561 -4112 -907 -1021 2256 1994 2518 541 366 -1202 -1161 -698 23 425 994 -19 -254 582 71 269 423 -733 -504 855 431 607 659 -1204 -988 321 170 -2 946 79 -907 -1021 2256 1994 2518 541 366 -1202 -1161 -698 23 425 994 -19 -254 582 71 269 423 -733 -504 855 431 607 659 -1204 -988 321 170 -2 946 79 328 526 -116 -1085 -811 -599 826 702 708 353 361 -113 -1356 -960 -485 1761 818 3896 -739 -486 -21326 9263 25568 -8087 -4826 -2145 1069 -1077 232 -312 1174 298 328 526 -116 -1085 -811 -599 826 702 708 353 361 -113 -1356 -960 -485 1761 818 3896 -739 -486 -21326 9263 25568 -8087 -4826 -2145 1069 -1077 232 -312 1174 298 1132 1249 603 1193 -139 -616 -4213 -2898 -3714 777 1382 6649 4271 7437 2203 -3260 -11714 -12972 -12098 -3481 10031 15958 28357 20999 7753 -32000 -32000 -32000 32000 32000 -17085 -32000 -32000 -32000 -11420 27077 32000 5012 -15572 3458 -6501 2292 -5396 -879 -3290 -330 762 3188 2321 590 -117 -1910 -498 -356 469 -806 15 -1238 152 -88 1288 753 987 345 -32000 -32000 -11420 27077 32000 5012 -15572 3458 -6501 2292 -5396 -879 -3290 -330 762 3188 2321 590 -117 -1910 -498 -356 469 -806 15 -1238 152 -88 1288 753 987 345 -363 -2413 -2055 323 898 1834 1136 23 -395 -1713 -1252 -487 1349 1332 248 -1608 -900 2050 1608 -2352 -3952 -1316 1934 2952 1258 -1040 -1812 -964 84 756 -611 -320 -245 -144 1491 654 -712 -231 -267 -778 -54 -323 217 950 425 -210 -225 -323 74 -609 -905 228 1079 1039 -591 -1070 -950 268 1403 873 -1420 -764 -393 404 -245 -144 1491 654 -712 -231 -267 -778 -54 -323 217 950 425 -210 -225 -323 74 -609 -905 228 1079 1039 -591 -1070 -950 268 1403 873 -1420 -764 -393 404 1388 346 -772 -918 -407 265 648 1191 -1375 -779 508 193 -37 -408 255 413 93 -503 -405 -90 143 51 -258 73 366 165 -109 -598 -596 -646 770 1108 1388 346 -772 -918 -407 265 648 1191 -1375 -779 508 193 -37 -408 255 413 93 -503 -405 -90 143 51 -258 73 366 165 -109 -598 -596 -646 770 1108 -344 -387 -506 373 -213 -124 -418 401 416 -575 -249 -60 826 -455 -284 68 -310 -866 308 577 362 648 -148 -491 -516 -902 -112 172 100 1099 601 127 -344 -387 -506 373 -213 -124 -418 401 416 -575 -249 -60 826 -455 -284 68 -310 -866 308 577 362 648 -148 -491 -516 -902 -112 172 100 1099 601 127 -837 -865 -1047 -719 1107 362 238 791 640 -172 -1263 -1748 -144 483 615 1226 984 -747 -1482 -535 -444 574 148 284 196 16 -343 -552 541 476 -191 -530 277 357 95 -20 19 -211 61 178 442 50 -201 -69 248 71 66 105 -43 -62 366 239 -286 -158 -60 952 -261 -349 -90 60 308 134 185 -42 18 -96 11 298 -18 81 5 0 227 -18 274 -32 -194 95 99 238 53 70 -9 -27 165 -61 96 -106 360 330 12 -95 -184 33 166 0 18 -96 11 298 -18 81 5 0 227 -18 274 -32 -194 95 99 238 53 70 -9 -27 165 -61 96 -106 360 330 12 -95 -184 33 166 0 447 409 -322 2 -65 57 145 52 227 239 -18 -244 227 257 -201 161 67 283 -74 -32 283 93 -153 -57 178 199 -11 -15 309 11 -61 -10 447 409 -322 2 -65 57 145 52 227 239 -18 -244 227 257 -201 161 67 283 -74 -32 283 93 -153 -57 178 199 -11 -15 309 11 -61 -10 297 -215 265 -12 -36 17 76 -230 848 260 -621 93 -44 193 213 110 -92 169 189 -265 203 40 237 205 -124 30 139 -80 75 252 121 1 29 34 10 243 219 43 -289 197 393 -26 -167 114 515 -209 -334 29 154 230 624 -41 -662 -11 179 329 26 7 436 -70 -133 10 -67 260 39 344 201 -63 -62 -181 388 -307 81 609 -7 39 -207 46 167 254 -164 -58 179 119 482 -70 -43 -77 -58 155 109 705 -411 -237 461 -117 39 344 201 -63 -62 -181 388 -307 81 609 -7 39 -207 46 167 254 -164 -58 179 119 482 -70 -43 -77 -58 155 109 705 -411 -237 461 -117 -157 203 179 240 0 26 -13 -130 291 226 -38 -160 199 118 107 321 -65 -193 67 128 217 145 -146 241 -58 0 180 236 -71 -107 21 27 -157 203 179 240 0 26 -13 -130 291 226 -38 -160 199 118 107 321 -65 -193 67 128 217 145 -146 241 -58 0 180 236 -71 -107 21 27 129 84 33 34 0 176 280 -54 -36 172 183 75 -44 -116 246 92 227 42 -69 -130 176 948 -133 -710 149 81 230 145 151 496 169 -44 -759 -535 831 768 200 4 -200 18 82 -104 24 200 126 227 74 172 114 -33 -171 -90 236 261 266 84 -138 83 207 181 -33 -192 -154 643 -759 -535 831 768 200 4 -200 18 82 -104 24 200 126 227 74 172 114 -33 -171 -90 236 261 266 84 -138 83 207 181 -33 -192 -154 643 778 -494 -304 154 53 154 262 160 7 -130 213 78 -20 79 308 158 -173 197 -2 306 -36 -2 69 73 307 20 -61 -74 262 52 65 375 778 -494 -304 154 53 154 262 160 7 -130 213 78 -20 79 308 158 -173 197 -2 306 -36 -2 69 73 307 20 -61 -74 262 52 65 375 30 -380 203 275 166 287 156 -351 -170 255 329 786 -133 -542 24 408 90 -20 302 153 -83 -170 112 190 430 27 -95 -89 146 241 148 114 30 -380 203 275 166 287 156 -351 -170 255 329 786 -133 -542 24 408 90 -20 302 153 -83 -170 112 190 430 27 -95 -89 146 241 148 114 124 -56 -23 -85 106 -151 246 1011 2 -671 92 45 78 334 210 38 104 -39 60 94 32 90 168 70 113 183 -10 11 -46 103 313 30 -147 83 282 144 -72 -103 107 97 325 128 190 -248 -87 230 157 -35 -115 1123 20 -343 -135 -294 234 582 231 -46 -34 37 12 -137 233 69 -147 83 282 144 -72 -103 107 97 325 128 190 -248 -87 230 157 -35 -115 1123 20 -343 -135 -294 234 582 231 -46 -34 37 12 -137 233 69 210 163 51 17 -59 151 127 -41 202 99 141 -8 -62 180 38 172 59 126 17 -111 188 317 39 58 -58 -115 -35 541 620 -525 -232 116 210 163 51 17 -59 151 127 -41 202 99 141 -8 -62 180 38 172 59 126 17 -111 188 317 39 58 -58 -115 -35 541 620 -525 -232 116 293 86 -16 184 171 -103 114 143 40 77 -76 170 221 43 -17 22 6 -46 388 160 -134 28 70 136 169 194 -385 -53 416 174 250 -12 293 86 -16 184 171 -103 114 143 40 77 -76 170 221 43 -17 22 6 -46 388 160 -134 28 70 136 169 194 -385 -53 416 174 250 -12'],['VivowatchSE-SNC-0003']
['2020-09-30 07:50:54'],[16.0],['3282 4807 3895 -167 -8310 -4711 2226 4893 3506 97 -3694 -3059 -692 1273 2622 2072 -196 -1878 -2079 -1544 -306 65 1458 1430 467 328 1345 -618 -4741 -1855 1274 2898 1794 -102 -360 -659 136 669 -1199 -2349 -856 141 2594 2978 7 -755 -1861 -1666 -479 -64 526 828 -306 65 1458 1430 467 328 1345 -618 -4741 -1855 1274 2898 1794 -102 -360 -659 136 669 -1199 -2349 -856 141 2594 2978 7 -755 -1861 -1666 -479 -64 526 828 1384 416 -474 -1078 -1650 -457 758 684 15 -19 262 -201 -77 -835 -714 316 692 541 -371 -767 -26 73 -213 48 428 -225 -261 109 -192 -417 464 271 -146 66 -515 -204 100 60 -173 589 719 -501 -598 -1416 -295 533 2125 1776 -1555 -1493 -1162 84 519 588 799 354 -138 -234 -1066 -806 203 629 903 313 -146 66 -515 -204 100 60 -173 589 719 -501 -598 -1416 -295 533 2125 1776 -1555 -1493 -1162 84 519 588 799 354 -138 -234 -1066 -806 203 629 903 313 -409 -561 -14 -101 64 87 322 139 -277 -31 -34 -10 -47 60 486 142 -264 -468 -481 -168 1199 308 -418 262 -528 -528 -7 451 639 41 -450 -329 337 553 -133 -680 -212 -29 578 350 -82 -3 -22 -217 -240 -100 285 66 9 221 422 154 -277 -753 -830 26 1194 820 223 -465 -1136 -420 148 1175 337 553 -133 -680 -212 -29 578 350 -82 -3 -22 -217 -240 -100 285 66 9 221 422 154 -277 -753 -830 26 1194 820 223 -465 -1136 -420 148 1175 224 -505 119 -356 238 66 291 289 -77 -313 -384 -510 -278 2164 664 -1004 -137 25 -366 15 -376 -104 725 125 615 -127 -249 -706 154 252 248 -109 224 -505 119 -356 238 66 291 289 -77 -313 -384 -510 -278 2164 664 -1004 -137 25 -366 15 -376 -104 725 125 615 -127 -249 -706 154 252 248 -109 177 -74 -221 -188 257 1526 403 199 -1154 -1791 -1766 -197 3014 3548 607 -2394 -2555 -1688 -333 1100 1517 1389 526 -405 -926 -562 -706 -337 417 627 914 329 177 -74 -221 -188 257 1526 403 199 -1154 -1791 -1766 -197 3014 3548 607 -2394 -2555 -1688 -333 1100 1517 1389 526 -405 -926 -562 -706 -337 417 627 914 329 -97 -279 -352 -5 -309 -208 251 430 432 292 -382 -270 84 -133 60 -131 -69 255 242 490 144 -227 -689 -381 165 -168 1021 868 -462 -427 -452 -112 354 232 37 -38 291 -61 154 19 -155 -192 -191 222 385 455 -21 -195 -306 10 260 216 90 23 -159 -168 122 348 195 167 -382 -524 595 329 354 232 37 -38 291 -61 154 19 -155 -192 -191 222 385 455 -21 -195 -306 10 260 216 90 23 -159 -168 122 348 195 167 -382 -524 595 329 70 -94 21 -47 -393 399 411 493 -76 -566 -350 -225 138 1042 -61 -174 156 -32 -244 -506 595 227 201 100 -156 -54 114 207 -28 -40 143 0 70 -94 21 -47 -393 399 411 493 -76 -566 -350 -225 138 1042 -61 -174 156 -32 -244 -506 595 227 201 100 -156 -54 114 207 -28 -40 143 0 98 223 39 -23 -96 100 160 132 75 -25 61 -79 58 210 88 130 126 -63 100 38 108 22 -138 66 323 123 166 -79 -95 3 -19 -23 468 966 -359 -833 -44 351 539 720 -290 -482 206 -25 92 147 139 42 200 43 206 -18 -15 -115 -53 441 416 91 -42 -236 52 176 428 245 468 966 -359 -833 -44 351 539 720 -290 -482 206 -25 92 147 139 42 200 43 206 -18 -15 -115 -53 441 416 91 -42 -236 52 176 428 245 -361 -102 99 422 403 -173 -45 -24 9 341 28 183 205 -5 40 203 -106 -115 105 516 -60 95 121 -190 163 -103 248 183 325 174 -82 -278 111 193 141 481 184 -127 -141 54 253 73 24 65 173 441 183 225 -528 -457 450 312 460 1 -55 164 -84 37 154 218 -102 80 130 34 111 193 141 481 184 -127 -141 54 253 73 24 65 173 441 183 225 -528 -457 450 312 460 1 -55 164 -84 37 154 218 -102 80 130 34 388 236 -35 -33 -105 45 -171 215 1098 6 -197 100 -161 -139 184 369 328 300 -135 -146 -90 208 49 224 244 -139 266 182 64 -95 40 114 388 236 -35 -33 -105 45 -171 215 1098 6 -197 100 -161 -139 184 369 328 300 -135 -146 -90 208 49 224 244 -139 266 182 64 -95 40 114 142 223 126 -13 118 131 81 239 -106 44 155 96 65 296 105 147 3 -41 114 42 30 323 114 281 219 55 -132 -406 -226 1148 730 -630 -6 25 258 35 158 174 252 -203 64 232 130 166 -90 118 307 50 -18 199 -16 195 258 49 -118 161 119 -88 248 217 -22 -188 372 293 -6 25 258 35 158 174 252 -203 64 232 130 166 -90 118 307 50 -18 199 -16 195 258 49 -118 161 119 -88 248 217 -22 -188 372 293 520 487 845 76 -74 -1038 -1407 -1277 -455 1358 2636 2852 1833 1372 -4304 -3384 -6247 -1736 -1460 6339 5257 11249 2496 2844 -11187 -9847 -18598 -8641 -4023 19163 20644 32000 520 487 845 76 -74 -1038 -1407 -1277 -455 1358 2636 2852 1833 1372 -4304 -3384 -6247 -1736 -1460 6339 5257 11249 2496 2844 -11187 -9847 -18598 -8641 -4023 19163 20644 32000 20610 1625 -32000 -32000 -32000 -32000 32000 32000 -32000 -32000 -32000 -13251 -4248 32000 28915 29125 13671 1133 -32000 -32000 -13835 9862 12401 17510 8136 1995 650 -5212 -8780 -5752 -3243 -572 20610 1625 -32000 -32000 -32000 -32000 32000 32000 -32000 -32000 -32000 -13251 -4248 32000 28915 29125 13671 1133 -32000 -32000 -13835 9862 12401 17510 8136 1995 650 -5212 -8780 -5752 -3243 -572 3769 4138 3583 812 -542 -821 -913 -1824 -1841 -1159 361 1054 1832 1040 687 -681 -900 -672 77 -7 -683 -137 827 658 286 -229 -1015 -691 -250 -297 452 71 91 10 -344 -1251 293 641 80 -150 -708 -134 -108 111 -239 891 -325 -1549 562 75 -479 724 38 -769 -45 -125 88 227 -564 -634 174 385 541 -178 91 10 -344 -1251 293 641 80 -150 -708 -134 -108 111 -239 891 -325 -1549 562 75 -479 724 38 -769 -45 -125 88 227 -564 -634 174 385 541 -178 -457 -1224 65 519 291 535 371 -959 -508 -47 -494 138 631 6 382 264 -468 -446 -1049 -732 414 657 1037 954 -1029 -1126 -420 -218 -24 -372 980 864 -490 -62 -468 -239 -47 -261 -286 -33 463 486 262 -282 -554 -346 -169 178 131 102 86 -178 6 -178 -152 -89 -14 80 209 -162 -260 -161 171 -9 -490 -62 -468 -239 -47 -261 -286 -33 463 486 262 -282 -554 -346 -169 178 131 102 86 -178 6 -178 -152 -89 -14 80 209 -162 -260 -161 171 -9 159 202 -561 -43 -224 256 120 -4 -55 -89 -338 -198 240 769 54 -865 -292 187 414 -16 6 -136 127 -57 -104 -83 -257 -23 158 181 160 -158 159 202 -561 -43 -224 256 120 -4 -55 -89 -338 -198 240 769 54 -865 -292 187 414 -16 6 -136 127 -57 -104 -83 -257 -23 158 181 160 -158 -176 -119 83 63 -266 -200 228 334 189 -126 -373 -408 -150 263 429 88 -111 -223 -196 -65 114 99 -66 56 116 18 -83 28 -137 -24 -455 422 597 -556 -257 -161 41 -190 521 220 -146 -15 -178 -388 476 122 -187 69 -131 285 -74 87 -209 -26 -18 -24 172 163 -1 6 -148 -76 82 -22 597 -556 -257 -161 41 -190 521 220 -146 -15 -178 -388 476 122 -187 69 -131 285 -74 87 -209 -26 -18 -24 172 163 -1 6 -148 -76 82 -22 87 -27 -20 87 135 -78 20 52 1 -207 -23 47 350 121 129 -41 -132 -216 -55 -262 566 820 -529 175 -320 -135 -106 216 360 31 -49 25 -168 -255 318 2 -13 275 -3 6 145 -312 -53 58 -4 195 189 76 -3 -128 111 -229 55 351 235 -130 -224 104 216 25 336 -259 -490 140 -168 -255 318 2 -13 275 -3 6 145 -312 -53 58 -4 195 189 76 -3 -128 111 -229 55 351 235 -130 -224 104 216 25 336 -259 -490 140 348 137 74 43 -232 225 99 -76 -189 -13 -209 946 -238 -460 270 -109 83 -30 214 -54 229 108 -205 1 118 166 23 -26 124 105 -144 32 348 137 74 43 -232 225 99 -76 -189 -13 -209 946 -238 -460 270 -109 83 -30 214 -54 229 108 -205 1 118 166 23 -26 124 105 -144 32 198 115 103 -93 109 109 -13 -53 104 193 1 -12 9 248 158 -162 1 -100 186 162 192 184 5 -176 -129 160 -12 -183 819 443 -614 -158 198 115 103 -93 109 109 -13 -53 104 193 1 -12 9 248 158 -162 1 -100 186 162 192 184 5 -176 -129 160 -12 -183 819 443 -614 -158 19 79 27 84 341 216 36 -149 -82 183 78 110 -27 1 226 221 9 28 -35 -153 50 134 465 2 -33 -108 137 245 -6 6 67 93 29 -122 71 53 30 216 22 210 302 -41 -83 -11 60 39 37 834 -392 -350 331 104 64 -3 12 204 270 136 11 -177 45 196 206 9 152 68 -9 137 44 159 150 -130 24 300 253 16 -37 -66 12 241 243 145 35 -157 28 305 173 82 -42 -102 68 65 506 170 -161 103 152 68 -9 137 44 159 150 -130 24 300 253 16 -37 -66 12 241 243 145 35 -157 28 305 173 82 -42 -102 68 65 506 170 -161 103 -220 -171 -70 662 992 -449 -231 -77 -13 348 239 135 -34 214 -14 126 -58 -52 125 145 251 -37 43 144 -27 23 79 92 247 112 -119 -62 -220 -171 -70 662 992 -449 -231 -77 -13 348 239 135 -34 214 -14 126 -58 -52 125 145 251 -37 43 144 -27 23 79 92 247 112 -119 -62 121 49 1 70 94 60 273 126 -124 -154 -74 159 253 236 89 -63 -108 63 114 -51 111 179 28 47 25 14 171 0 -56 -2 228 30 52 170 -4 9 -3 153 17 22 -149 100 328 257 121 -149 -266 -63 -113 618 747 -430 -89 -62 10 45 235 53 170 150 -9 -4 -173 -37 52 170 -4 9 -3 153 17 22 -149 100 328 257 121 -149 -266 -63 -113 618 747 -430 -89 -62 10 45 235 53 170 150 -9 -4 -173 -37 193 337 14 -14 -21 -26 85 85 68 80 -25 47 88 199 -76 99 30 -210 186 268 42 -53 47 23 90 54 97 -24 -109 -24 202 290 193 337 14 -14 -21 -26 85 85 68 80 -25 47 88 199 -76 99 30 -210 186 268 42 -53 47 23 90 54 97 -24 -109 -24 202 290 249 -103 -213 -130 -80 -154 946 339 -480 16 -203 17 187 233 -20 52 114 144 -13 -105 -185 107 182 314 -5 18 -80 -106 2 203 196 -137'],['VivowatchSE-SNC-0003']
['2020-09-30 10:20:34'],[16.0],['-125 -253 121 180 171 -77 20 -118 -267 -77 266 359 -262 -97 11 -186 203 -20 -150 428 836 -78 27 -1131 -1724 -2505 -1718 -1015 1476 1794 3816 2684 976 -1718 -5439 -8159 -7214 -3303 1966 10124 12766 12528 3481 -3239 -18996 -20181 -23162 -4739 4505 32000 32000 32000 836 -78 27 -1131 -1724 -2505 -1718 -1015 1476 1794 3816 2684 976 -1718 -5439 -8159 -7214 -3303 1966 10124 12766 12528 3481 -3239 -18996 -20181 -23162 -4739 4505 32000 32000 32000 5676 -12302 -32000 -32000 -32000 -22181 32000 32000 32000 -32000 -32000 -32000 32000 32000 32000 32000 5089 -12041 -32000 -32000 -29803 -2035 4931 21063 22276 20213 807 -6956 -17259 -13735 -7798 1342 3278 6807 4752 3355 1789 -862 -3122 -3686 -2588 -2220 -1367 1315 2300 2384 1788 -909 -2300 -2042 -635 -842 278 -984 -688 513 -135 -597 -1593 -1808 -202 226 -132 -284 3278 6807 4752 3355 1789 -862 -3122 -3686 -2588 -2220 -1367 1315 2300 2384 1788 -909 -2300 -2042 -635 -842 278 -984 -688 513 -135 -597 -1593 -1808 -202 226 -132 -284 -334 -685 -1050 -883 -935 -179 -109 -487 73 -322 -473 -675 -1263 -1522 -848 542 551 1059 132 -1597 -1549 -943 -1433 -1342 -145 953 2844 815 -2670 -3767 -3125 -193 1636 1057 863 -358 -1619 -2372 -208 -47 251 130 -458 -1105 -549 -110 -662 23 -83 -309 -594 -663 299 -355 -1401 -1715 -449 1511 778 1210 -1079 -2554 -991 -398 1636 1057 863 -358 -1619 -2372 -208 -47 251 130 -458 -1105 -549 -110 -662 23 -83 -309 -594 -663 299 -355 -1401 -1715 -449 1511 778 1210 -1079 -2554 -991 -398 -247 95 372 -762 707 698 -1126 -2073 -1271 -614 696 1449 176 -1153 -1241 -1518 -19 198 145 505 230 -486 -917 -1361 -1009 -1230 -647 2785 1816 -788 -2292 -2295 -247 95 372 -762 707 698 -1126 -2073 -1271 -614 696 1449 176 -1153 -1241 -1518 -19 198 145 505 230 -486 -917 -1361 -1009 -1230 -647 2785 1816 -788 -2292 -2295 -2175 -543 1681 1627 543 -434 -1321 -1656 -437 -212 4 -58 35 -319 48 64 -480 -534 -668 -614 -223 193 -199 55 485 -1108 -535 42 -160 -264 -309 -432 165 169 -253 -340 -1138 -818 590 376 -145 -332 -622 -781 -54 169 -111 -136 -381 -698 83 170 -537 -175 -98 -348 -104 -463 -180 194 -516 -500 -136 -31 165 169 -253 -340 -1138 -818 590 376 -145 -332 -622 -781 -54 169 -111 -136 -381 -698 83 170 -537 -175 -98 -348 -104 -463 -180 194 -516 -500 -136 -31 106 -3 -827 212 -655 -667 -55 -482 190 -193 580 337 -552 -1019 -1264 -901 1000 726 252 252 -492 -982 -891 -292 -38 -297 179 712 887 -230 -1079 -1868 106 -3 -827 212 -655 -667 -55 -482 190 -193 580 337 -552 -1019 -1264 -901 1000 726 252 252 -492 -982 -891 -292 -38 -297 179 712 887 -230 -1079 -1868 -1310 598 738 -17 613 862 -705 -1468 -995 597 366 -265 -594 -79 611 1003 -166 -1709 -771 -257 -170 239 568 315 -143 -383 -103 -344 -640 -526 -265 196 -1310 598 738 -17 613 862 -705 -1468 -995 597 366 -265 -594 -79 611 1003 -166 -1709 -771 -257 -170 239 568 315 -143 -383 -103 -344 -640 -526 -265 196 825 227 -479 -426 -952 -331 289 -76 391 136 -570 -635 80 387 -159 -501 -494 -176 540 404 -85 -506 -939 -644 174 407 226 658 386 -1705 -278 65 -200 357 347 153 -334 -283 -465 -222 -79 -71 417 75 -131 -643 -772 296 483 -190 -150 -139 -463 -138 47 -32 -31 100 -31 -246 -114 -136 -177 -108 -200 357 347 153 -334 -283 -465 -222 -79 -71 417 75 -131 -643 -772 296 483 -190 -150 -139 -463 -138 47 -32 -31 100 -31 -246 -114 -136 -177 -108 20 -20 362 -177 -371 -178 -395 -323 578 862 -661 -573 115 -236 -78 47 -4 91 171 -206 -161 -207 -149 213 -168 -128 173 120 -62 -355 -280 -217 331 202 94 -108 -528 -258 203 159 90 16 -155 -238 -352 337 97 271 -11 -356 -307 -50 123 2 592 -576 221 62 -340 -158 -12 274 108 85 331 202 94 -108 -528 -258 203 159 90 16 -155 -238 -352 337 97 271 -11 -356 -307 -50 123 2 592 -576 221 62 -340 -158 -12 274 108 85 -238 -248 -280 44 365 148 -138 -297 -162 -32 193 341 -313 92 -158 -368 252 148 71 -135 -67 -91 25 108 -108 -113 187 -117 198 -57 -109 34 -238 -248 -280 44 365 148 -138 -297 -162 -32 193 341 -313 92 -158 -368 252 148 71 -135 -67 -91 25 108 -108 -113 187 -117 198 -57 -109 34 -205 -301 43 1189 105 -992 -228 15 240 82 70 11 -261 -103 -26 348 242 -121 -185 -321 55 32 -21 -36 -93 253 446 110 -82 -304 -555 -732 -175 536 1031 1343 279 -549 -1682 -863 195 314 764 850 402 -524 -122 -450 -556 -711 925 837 -702 73 487 172 -74 -349 -184 -160 17 219 -39 128 -175 536 1031 1343 279 -549 -1682 -863 195 314 764 850 402 -524 -122 -450 -556 -711 925 837 -702 73 487 172 -74 -349 -184 -160 17 219 -39 128 70 34 -84 -28 345 573 396 486 26 -456 -959 -889 -1137 85 425 2267 1950 2013 -1160 -1107 -4841 -3125 -3749 1877 1596 7587 4852 6124 -2958 -3593 -12640 -10846 -9620 -839 11237 21933 22462 13732 2157 -32000 -32000 -32000 32000 32000 -32000 -32000 -32000 -23185 2616 32000 32000 -32000 -32000 12212 11229 7134 -4056 2728 -2964 -1061 -5284 -4196 -1335 158 -9620 -839 11237 21933 22462 13732 2157 -32000 -32000 -32000 32000 32000 -32000 -32000 -32000 -23185 2616 32000 32000 -32000 -32000 12212 11229 7134 -4056 2728 -2964 -1061 -5284 -4196 -1335 158 5750 6239 10040 5180 267 -10473 -15605 -18579 -7923 4965 18971 32000 32000 16801 -32000 -32000 -32000 32000 32000 -12775 -21030 -32000 -31283 -26656 13265 16039 29587 14737 5987 -13431 -18152 -17547 5750 6239 10040 5180 267 -10473 -15605 -18579 -7923 4965 18971 32000 32000 16801 -32000 -32000 -32000 32000 32000 -12775 -21030 -32000 -31283 -26656 13265 16039 29587 14737 5987 -13431 -18152 -17547 200 20616 32000 -18292 -32000 9788 13933 6854 -2857 787 84 286 -5117 -1885 -1051 548 585 1219 653 940 -1249 616 -147 -542 -1855 -878 -443 75 1425 1211 542 -108 200 20616 32000 -18292 -32000 9788 13933 6854 -2857 787 84 286 -5117 -1885 -1051 548 585 1219 653 940 -1249 616 -147 -542 -1855 -878 -443 75 1425 1211 542 -108 -1150 -1380 302 -47 93 1124 665 -930 314 -270 -725 -836 -635 434 1249 1259 115 -1312 -1849 -876 216 578 281 202 68 121 -140 0 -561 -500 -1094 -1122 2279 881 -211 -686 -646 -610 31 61 -93 389 96 171 -149 -190 -897 -222 545 189 70 -110 -553 64 -322 97 679 -1101 -220 28 79 -54 145 148 2279 881 -211 -686 -646 -610 31 61 -93 389 96 171 -149 -190 -897 -222 545 189 70 -110 -553 64 -322 97 679 -1101 -220 28 79 -54 145 148 -80 -116 -367 -416 111 433 12 70 -126 -385 79 -50 -7 2 -269 -93 203 292 -37 -147 -316 -351 155 78 155 106 -112 -155 187 -212 -300 -66 126 -38 430 51 -1 -380 -709 64 503 999 -669 -145 -316 -390 391 202 48 -108 -77 -108 102 33 29 -140 53 -253 366 -69 -217 206 334 -105 -10 199 137 139 -48 -81 -278 0 398 305 -255 62 165 -13 -234 -96 320 245 -7 16 -40 -129 89 45 185 53 -25 22 230 -168 1 28 84 31 362 7 31 -115 -320 -181 556 1297 -531 -476 -12 -82 -66 187 508 204 36 -211 4 93 73 -13 -52 136 177 279 196 -193 -280 -16 -80 -116 -367 -416 111 433 12 70 -126 -385 79 -50 -7 2 -269 -93 203 292 -37 -147 -316 -351 155 78 155 106 -112 -155 187 -212 -300 -66 126 -38 430 51 -1 -380 -709 64 503 999 -669 -145 -316 -390 391 202 48 -108 -77 -108 102 33 29 -140 53 -253 366 -69 -217 206 334 -105 -10 199 137 139 -48 -81 -278 0 398 305 -255 62 165 -13 -234 -96 320 245 -7 16 -40 -129 89 45 185 53 -25 22 230 -168 1 28 84 31 362 7 31 -115 -320 -181 556 1297 -531 -476 -12 -82 -66 187 508 204 36 -211 4 93 73 -13 -52 136 177 279 196 -193 -280 -16 281 179 31 -29 235 16 68 -108 17 229 193 -53 29 289 4 -51 3 168 -54 221 93 114 203 -4 -189 -156 -364 1000 1017 -820 -8 -27 281 179 31 -29 235 16 68 -108 17 229 193 -53 29 289 4 -51 3 168 -54 221 93 114 203 -4 -189 -156 -364 1000 1017 -820 -8 -27 295 291 102 -61 -6 -8 -291 92 1453 -36 -966 206 53 270 156 181 129 84 -28 -101 126 141 163 227 119 27 -104 44 111 269 32 175 295 291 102 -61 -6 -8 -291 92 1453 -36 -966 206 53 270 156 181 129 84 -28 -101 126 141 163 227 119 27 -104 44 111 269 32 175 17 -24 161 69 89 134 99 86 114 24 83 15 179 120 58 43 16 235 328 -39 -37 -127 -32 -142 1026 798 -995 -249 52 99 333 296 17 -24 161 69 89 134 99 86 114 24 83 15 179 120 58 43 16 235 328 -39 -37 -127 -32 -142 1026 798 -995 -249 52 99 333 296 174 -4 -96 -47 213 9 17 279 121 136 -91 -2 174 89 16 76 90 148 174 58 8 -1 14 210 149 64 64 -19 25 99 180 137 174 -4 -96 -47 213 9 17 279 121 136 -91 -2 174 89 16 76 90 148 174 58 8 -1 14 210 149 64 64 -19 25 99 180 137 77 -50 158 32 -92 19 19 949 284 -860 -53 115 155 241 327 199 -17 -8 -217 -124 185 361 321 190 -208 -54 87 82 159 143 -144 108 77 -50 158 32 -92 19 19 949 284 -860 -53 115 155 241 327 199 -17 -8 -217 -124 185 361 321 190 -208 -54 87 82 159 143 -144 108 130 77 -47 98 -117 26 12 197 142 125 -19 50 -15 -43 150 27 30 134 153 74 -101 44 87 49 1 150 16 -47 100 27 132 147 20 -6 19 -75 -322 292 1143 -303 -448 16 41 341 226 97 6 -55 -19 -26 -15 124 157 65 74 164 -54 48 -173 -11 161 185 217 7 20 -6 19 -75 -322 292 1143 -303 -448 16 41 341 226 97 6 -55 -19 -26 -15 124 157 65 74 164 -54 48 -173 -11 161 185 217 7 -64 -1 17 124 134 10 73 -82 40 137 -11 122 75 181 18 -13 -80 -235 -158 644 1152 -599 -767 109 164 149 195 124 15 81 -98 57 -64 -1 17 124 134 10 73 -82 40 137 -11 122 75 181 18 -13 -80 -235 -158 644 1152 -599 -767 109 164 149 195 124 15 81 -98 57 33 60 90 108 16 76 37 99 51 -44 87 85 -32 108 116 58 94 -133 48 139 37 108 63 19 -71 46 97 27 312 102 -96 -98'],['VivowatchSE-SNC-0003']
['2020-09-30 13:57:12'],[16.0],['222 -294 -934 -668 437 487 -44 -194 -726 -225 19 196 284 128 -296 -367 -173 -172 -168 -136 -152 129 1051 -836 -447 -25 -535 -130 187 306 133 -14 -384 -111 124 -126 -252 -30 -79 -18 7 273 78 -121 -196 -438 200 155 59 -170 -362 138 370 231 -226 -63 -589 -799 819 598 182 -281 -233 -410 476 -1 -417 -105 335 304 -318 415 -230 99 88 -110 -251 -148 138 145 285 35 72 -134 -184 -61 115 -47 215 -46 -133 332 23 -127 226 -33 -181 -16 -212 -38 566 415 -179 -299 -223 -194 444 265 84 75 -340 -275 109 515 956 -521 -1163 101 627 365 -94 -22 -76 32 -20 -76 130 97 175 137 142 -230 -24 90 -32 205 37 49 237 187 -220 -69 164 34 -35 360 14 -234 273 251 158 -124 -6 -138 132 14 60 917 155 -754 256 143 -148 182 289 -18 176 203 116 -64 -69 55 139 89 103 180 61 221 13 -145 66 218 135 107 61 17 95 -3 334 170 -71 120 211 84 -41 157 205 -497 -174 93 -460 -17 1419 1260 -566 -792 -476 -694 -148 -499 420 415 1025 1370 1572 -23 -1141 -2654 -2653 -1953 631 2203 3958 4920 3495 1606 -4777 -8745 -12663 -10768 1032 32000 8374 -29712 -17846 -11212 2010 5685 8791 5235 3288 -1185 -2597 -4377 -2522 -1557 407 2240 2590 1817 489 162 -794 -1163 -925 -302 -235 737 762 719 471 -235 -500 112 50 543 806 282 -471 -328 -1198 -1048 779 1346 1030 1606 1209 -402 -2705 -6127 1553 5500 2647 357 -1031 -1518 -1185 -271 134 1146 621 -607 -495 1413 361 -330 -276 -383 -243 233 391 200 -26 32 -682 -48 -70 180 351 883 375 236 -441 -1708 -2444 -1510 857 5508 7882 -4937 -7090 -1459 541 1495 1367 1211 665 716 -691 -1042 -944 -311 -479 513 6 -95 -406 -179 -245 268 968 493 416 -1219 -2082 -2319 -1530 -703 1765 2867 4200 3011 576 -4006 -5255 -7452 -5116 -2089 5813 8886 12482 8827 2662 -7672 -20215 -25836 -18130 3888 32000 32000 -25348 -32000 -32000 -14317 14466 19519 20217 9645 2466 -8292 -9803 -12120 -6732 -162 5541 7999 7074 3253 -1630 -4984 -2755 -4788 -1836 919 2335 2593 1832 -1328 -1635 1869 -2102 -1901 -363 809 422 59 561 -26 -828 -899 -652 1029 -98 -1352 -1023 448 332 401 -175 -1441 -2097 -1274 565 1195 1946 611 -1448 -3653 -3848 755 2848 2117 -53 -1702 -1774 -2192 518 556 230 -16 -181 -100 4 -196 -1189 -822 -585 -115 497 135 22 -358 -438 -940 -562 -364 157 690 114 -742 -570 -715 -546 108 921 183 -1031 -789 -695 110 158 83 66 -142 -542 -611 -978 -217 446 407 -234 -490 -570 -132 -193 -747 5 2 -314 -33 25 -232 -298 -430 -298 -300 -109 -38 -139 48 -22 -380 -259 -361 -331 -444 353 209 -305 12 -462 -253 -368 -451 103 134 238 2 -467 -431 -316 -637 -297 -11 254 469 850 -468 -1362 -1043 -1358 -65 1659 854 36 -422 -1051 -842 5 82 -303 -387 -383 136 1145 1119 -603 -933 -2146 -1263 1152 124 391 494 839 -61 -1011 -1307 -338 -407 -362 289 1262 1349 -160 -1785 -1481 -299 753 955 -779 -140 -303 -1082 1129 1403 67 -725 -1666 -1477 199 1222 1074 -230 188 91 -323 -948 -1132 -1000 -403 1227 2892 1533 -2695 -3593 -535 665 753 1190 485 363 -217 -1160 -1250 -963 398 1204 1008 792 -358 -1421 -853 -797 -264 1205 585 -69 -5 -308 -561 -180 -272 203 -361 144 583 -78 -136 -18 -383 -290 264 120 -503 35 -202 134 1140 -398 -676 -416 103 260 141 165 27 -295 -424 -154 48 263 -27 63 -200 -165 -70 172 3 -19 -729 -354 522 442 376 -457 -495 -496 -182 334 171 36 52 78 -126 -253 -96 -272 -437 73 1186 86 -350 -256 -532 -151 255 601 -187 -177 -285 -158 207 290 -100 -332 -306 117 272 -28 -51 -46 -28 -2 49 -51 -128 -234 -27 425 39 -159 22 -284 -48 56 -52 136 184 -191 -267 -346 85 903 -592 -110 189 -225 -186 -181 443 263 -95 -377 -60 -34 149 242 -206 -152 80 93 -19 -27 -40 1 -43 -35 203 -178 -90 148 -49 -3 116 -153 -57 74 -120 242 -22 -67 -113 -76 -137 -19 829 -390 -458 0 -13 -53 315 237 -53 -37 -141 -225 -58 431 250 -69 -135 -215 70 242 109 33 -281 -149 212 243 78 -110 -86 -230 188 144 81 101 -83 -146 -76 232 285 95 -157 -251 -95 -76 68 1097 299 -1020 -72 94 73 96 207 160 40 14 30 -176 -243 -23 323 186 -8 -41 141 -70 -65 218 28 -211 139 127 -42 212 110 75 -130 -117 51 106 -47 17 361 227 -169 -109 -269 73 -33 886 -169 -817 162 42 187 77 216 -28 52 -119 -150 193 40 -12 224 121 10 -58 -300 249 329 94 149 -192 -124 126 147 173 21 -26 70 106 76 -169 -22 1 254 330 35 -87 -149 -50 -175 10 985 246 -616 -140 38 46 -62 184 361 338 -5 -336 -427 -38 310 500 125 -53 -146 -124 134 112 -76 275 86 -14 30 56 26 156 -66 21 268 17 -58 32 58 13 32 293 150 -243 -15 95 -149 -107 1032 -453 -569 218 126 439 -38 -69 81 24 -108 162 13 24 171 242 -47 8 30 72 44 24 118 32 98 67 0 17 167 282 153 -118 -328 -159 106 510 213 -202 195 39 4 -70 79 -71 26 -307 702 1095 -789 -93 -29 8 -68 117 372 219 42 -101 -22 5 190 124 -8 -86 6 209 286 -46 49 -16 58 119 -102 225 152 103 60 11 -28 34 196 253 71 31 92 -260 -259 265 146 970 -199 -793 177 17 94 2 126 496 296 -16 -44 -271 3 41 224 208 285 83 47 -24 -49 109 107 13 14 189 127 270 134 -80 -58 99 83 96 64 -80 164 241 318 191 56 -216 -469 -126 261 1393 566 -953 -73 -30 173 154 12 211 184 320 93 -269 -161 57 157 211 233 73 97 83 -115 -22 103 132 171 141 137 41 34 -27 72 30 43 270 195 123 -56 -77 206 185 -85 225 -39 -185 4 1161 207 -907 90 53 123 141 338 244 87 -79 -126 91 8 103 218 133 253 142 -60 -179 0 -28 214 298 154 207 51 -159 9 89 125 172 73 -66 81 294 322 239 -147 -324 -204 116 162 1151 800 -1160 -284 266 165 302 392 236 -133 -89 -89 -151 280 437 115 65 -8 -65 -49 37 115 135 236 271 155 162 -393 -203 80 226 350 420 13 -33 41 -174 -214 -45 400 475 289 3 -178 -242 -78 816 75 -373 182 57 307 35 6 151 132 -62 -36 -35 147 259 236 283 -31 -335 -116 217 214 148 233 109 -158 -142 262 260 -39 65 59 106 39 216 113 -98 -69 88 125 209 177 76 1 -35 -252 58 864 -499 -205 275 -51 214 269 130 45 -40 -270 8 56 118 462 528 109 -120 -441 -189 132 178 253 487 301 -194 -101 -259 -64 213 131 159 187 198 -95 90 237 -93 -110 -12 -25 231 367 160 -301 47 -81 367 447 -732 -66 101 184 249 187 121 141 -12 -234 15 114 80 264 63 88 170 60 -41 -13 37 -44 245 181 40 80 4 -32 168 104 159 -59 -116 109 126 182 225 222 -151 22 -147 -17 -52 517 1280 -610 -893 232 186 369 198 15 176 -83 -81 -6 53 179 185 170 46 89 -121 -57 68 215 112 144 129 26 -94 94 91 70 207 109 86 -2 -17 20 98 102 147 262 59 -46 -199 -34 -170 893 733 -851 -178 120 52 204 189 226 56 -28 -109 -2 157 204 124 197 -48 -15 146 105 108 81 -73 75 189 172 118 7 -43 97 51 127 138 68 45 -23 179 37 90 255 168 -190 -52 -39 145 172 647 -85 -725 86 152 308 134 18 65 244 98 82 -188 -160 385 163 218 312 -26 -225 16 129 45 291 104 65 80 -50 127 174 91 -147 17 256 172 237 85 -308 24 175 146 417 259 -256 -112 -153 3 292 1024 -498 -411 58 -25 408 45 207 119 12 -104 1 131 153 87 104 57 58 27 -24 194 172 105 36 -145 127 217 71 142 60 55 -37 82 7 25 131 177 209 106 -52 -116 -49 -46 -120 938 803 -840 -403 57 208 236 222 168 -36 8 35 66 -59 72 68 250 120 49 2 -21 -40 90 84 67 163 85 106 25 110 -74 30 -66 58 268 195 217 7 -111 -175 -37 30 -27 1023 528 -1054 -267 198 258 204 33 26 101 200 -30 -44 -162 86 151 216 163 89 81 -168 -47 273 101 -112 -38 80 419 83 0 -110 -122 -4 220 167 161 33 -127 120 146 156 -185 18 -30 -148 931 -55 -596 -4 77 68 127 341 135 31 -46 -257 -159 452 121 102 150 -124 79 34 -23 70 54 28 176 229 -145 -33 82 71 25 125 111 69 148 -91 -78 110 73 324 61 -117 -39 0 -157 470 911 -655 -555 213 9 329 184 290 184'],['VivowatchSE-SNC-0003']
['2020-10-01 14:53:50'],[16.0],['136 -220 -306 -100 -12 -66 -26 -215 -369 -54 195 60 -66 -465 -292 98 -487 -306 1228 121 -1021 -269 -271 301 24 -173 26 26 -278 -126 21 -45 -247 -191 117 -43 -140 -116 -18 63 -217 -43 -281 -66 85 -10 -57 -174 -14 -231 -160 -67 196 163 -190 -193 -335 -422 -117 825 821 -878 -722 -1 -59 48 -9 -70 70 -6 122 -92 -375 -344 -255 94 351 209 -229 -282 -120 -155 -28 30 -90 -18 -97 24 121 -145 -343 18 0 -104 -76 -75 -6 122 109 -166 -206 -194 -303 -87 877 81 -434 -208 -194 73 -60 -11 96 70 95 6 -353 -365 -209 135 357 384 -4 -370 -267 -140 -20 25 64 -50 214 81 -201 -49 -190 -282 66 220 65 -233 -69 129 134 5 -112 -485 -420 -255 1198 672 -1059 -277 75 -168 -29 -92 89 394 64 -231 -83 -223 -92 38 45 34 232 -22 -329 -93 72 45 -69 -86 53 140 -66 -36 -64 33 -125 -163 201 104 -45 -76 -196 211 86 -136 83 -224 -439 117 927 -84 -357 -60 -107 40 -58 116 181 93 -128 -82 -224 -160 99 236 139 57 30 -351 -134 38 165 254 4 -202 54 -11 -36 -24 -63 -17 210 -83 22 -47 -154 -16 136 180 67 -156 -231 -393 533 1017 -762 -588 300 178 0 23 -97 15 141 -164 -41 48 206 182 -128 -150 -122 -103 209 226 -70 5 33 36 -71 -204 -40 -79 169 299 214 72 -108 -518 -171 -4 387 524 123 -112 -214 -200 -130 -348 491 868 -738 71 79 67 -11 -65 -132 133 157 -114 28 -59 158 -8 114 -94 -118 -80 98 64 63 116 67 33 -195 -92 -59 86 215 158 -29 -37 -51 -208 26 -20 106 296 137 84 -219 -182 -176 -193 122 1139 -38 -829 203 -125 -19 -23 275 158 -32 -78 -65 17 -23 29 55 -27 92 118 -20 -125 -137 180 154 17 5 -10 -83 -57 115 89 26 -29 -26 -52 82 -37 31 192 -6 -102 -32 -148 15 -259 890 341 -879 -29 -27 76 -20 278 72 -6 58 -196 -86 -30 142 189 -13 -116 152 20 -70 -112 20 31 67 97 56 -140 -10 154 -96 -41 28 248 21 -245 -36 -27 56 359 278 -184 -229 -154 -223 44 832 110 -333 8 -9 55 -130 7 -18 252 157 -90 -13 -129 -12 130 89 -88 15 140 -163 123 125 0 -20 -93 -51 34 190 94 -123 31 87 -47 -48 -166 -81 210 363 40 -235 -161 -148 -33 -65 1078 92 -872 10 -45 275 19 128 -4 -70 -55 6 277 19 -188 40 -7 49 219 35 -44 -135 -21 144 85 -38 -24 -70 105 97 26 17 -57 20 -133 49 125 130 166 57 -33 -54 -321 -122 -189 838 664 -630 107 -146 -142 -163 242 250 182 19 -100 -79 -137 -14 164 151 164 25 -111 68 0 -63 33 323 -128 -38 152 69 79 55 59 -142 -38 165 210 -11 -255 324 124 -79 -482 432 752 -750 162 107 65 4 -77 220 237 -10 -223 0 -25 79 151 141 83 -70 71 30 -96 -161 62 355 104 53 -16 -225 98 93 35 172 -192 82 53 34 336 -172 -96 -179 108 132 154 667 -837 -388 272 259 299 -193 60 66 51 36 66 -32 26 34 -108 195 326 -50 -62 -95 -78 72 297 52 -192 49 206 51 14 -55 -43 32 187 -36 21 312 90 -107 -182 -244 -216 511 1276 -380 -1053 155 192 150 132 54 -54 108 53 33 -133 25 7 124 193 -21 28 -12 16 -25 55 20 52 107 159 -70 19 -88 -47 -50 164 296 191 -248 -68 12 -90 -18 -273 1229 -207 -739 -11 -18 228 121 36 12 107 -58 24 -48 -57 -2 102 157 100 -7 -111 7 15 77 29 -13 0 43 212 73 -123 33 -70 -4 143 -47 -2 25 303 117 -87 -111 -252 -178 -64 1099 310 -809 -103 -103 112 220 -53 88 175 -110 -45 5 -20 -27 175 6 -20 45 -90 -4 218 -34 -96 -115 46 189 93 34 -85 -84 79 -55 19 109 109 -141 -53 122 51 167 -118 -90 -202 -76 -172 1047 298 -875 -188 -28 -25 290 165 42 43 -90 -110 -38 53 37 116 59 48 -19 -78 -125 113 135 18 11 -67 -18 21 187 41 -238 -13 167 137 155 -140 -137 198 56 -184 -96 229 317 -270 -47 -99 -279 -191 970 518 -977 -270 92 140 93 124 -5 41 97 -180 -51 -197 215 185 48 123 -137 -20 -157 40 146 58 64 -91 -39 96 0 -17 -27 120 -13 -6 42 10 35 -102 -58 45 126 241 -143 -125 -51 -169 -129 353 787 -921 -430 134 90 315 9 20 -38 -10 -57 -46 -44 113 95 183 -69 -52 -52 -96 82 55 33 -28 54 32 73 92 -144 -40 -111 36 165 71 60 -29 79 -119 -86 -53 -8 67 132 214 65 -130 -91 -124 -318 -90 1042 491 -928 -220 50 162 -2 -10 158 42 -36 -85 -1 -40 106 31 -15 -31 137 -42 15 4 -41 49 -4 171 -81 -66 111 13 12 -161 -102 237 32 89 -54 -144 46 105 -73 -34 4 36 71 152 8 -73 -68 -180 -369 138 1116 -476 -697 42 7 172 78 74 -36 61 49 -164 -58 -26 130 184 63 -84 -57 -4 -2 49 72 -80 -26 163 142 14 -138 2 -121 57 -4 61 168 31 18 -52 -122 -34 118 -47 -101 162 137 205 52 -121 -238 -282 -50 25 990 191 -611 10 -103 -9 185 85 66 10 -47 42 -160 111 -45 -3 79 -23 80 -58 -23 41 77 -27 -44 94'],['VivowatchSE-SNC-0003']
['2020-10-04 03:49:22'],[16.0],['279 179 -10 -136 86 -78 39 239 249 325 42 -295 -124 211 33 243 164 7 185 -63 70 150 10 -173 77 538 133 -108 -16 214 224 54 -150 -463 909 352 -385 40 7 60 327 13 25 148 -159 131 206 25 120 100 78 0 217 200 -99 -6 -40 218 153 199 325 -29 -211 -271 368 302 186 117 -159 69 203 10 185 -13 263 -122 -33 374 169 -94 288 858 -737 -309 49 271 431 179 161 44 18 -23 -49 42 138 235 282 79 -91 257 -64 36 -77 161 415 -76 360 -111 -20 -18 73 268 337 116 -163 -1 -51 309 66 139 77 320 125 -74 -6 -197 -124 343 1151 -46 -269 70 -82 -100 119 503 359 -17 -62 125 -133 29 63 306 297 229 -49 -17 -11 -92 383 208 80 91 187 -159 0 227 233 106 200 48 -82 149 -70 68 640 329 -267 -441 -451 635 850 -268 -148 167 -94 38 -91 111 552 369 -40 12 -46 -300 294 123 261 268 147 124 -83 -102 92 364 -129 318 192 -24 196 98 183 -42 -291 219 397 304 63 69 -59 -76 227 138 5 162 57 281 875 -248 -594 -19 343 527 304 270 17 -307 -56 89 41 247 447 102 -179 150 103 149 -52 89 343 -19 -94 155 67 324 464 65 -193 -264 128 312 155 182 223 103 4 83 247 225 -315 7 87 -25 102 883 571 -589 -45 -195 118 152 147 337 314 89 83 64 -144 -264 174 264 293 413 163 -28 -65 -197 27 329 185 287 -44 64 121 32 258 143 -238 -33 290 289 333 200 -197 23 -106 -62 329 682 -141 -401 268 115 139 155 -61 274 175 -87 159 92 56 169 160 54 94 132 -58 144 208 166 0 111 7 -59 173 247 298 77 -87 -139 184 184 45 151 185 211 107 -47 2 100 -30 -73 -69 750 890 -407 -446 106 53 291 295 221 77 -123 100 105 -47 4 376 74 57 57 -54 111 169 299 125 -155 -183 211 217 158 211 -12 -72 38 162 140 136 -104 31 429 28 327 -195 -216 158 109 -143 473 1131 -477 -670 -3 207 256 164 428 149 -224 128 -1 -37 86 151 337 10 149 -18 23 275 5 -135 -25 350 337 99 33 -13 -37 23 128 273 69 -55 260 65 110 234 54 -256 153 183 151 -52 -100 987 -429 -412 53 -22 391 131 158 165 -44 -44 81 13 -2 46 404 205 110 -160 19 15 99 204 107 32 104 109 72 191 2 -25 124 55 -38 240 115 219 123 11 69 -196 -86 129 -38 1046 317 -926 -16 61 98 272 319 25 76 -17 -87 75 17 157 256 61 108 54 -32 72 42 87 46 120 232 174 -47 92 -98 -1 265 -39 221 231 -115 29 -106 -151 491 91 216 -19 -326 -194 158 1025 -443 -372 186 68 29 131 275 185 113 -58 -122 -32 263 221 145 136 -127 74 175 0 174 139 3 -27 293 49 -38 152 -16 88 181 201 211 -77 -234 89 62 299 225 195 -15 -37 137 -89 168 -268 213 791 -332 -399 84 153 167 227 145 -136 -125 203 131 139 144 114 -32 26 16 125 55 152 47 119 178 32 33 74 95 -70 -47 297 326 -28 136 -68 51 -42 -105 268 281 110 60 42 85 -141 27 13 325 523 -639 -209 288 209 266 36 -93 42 187 -55 69 74 132 242 -40 89 -44 118 193 19 20 140 181 -105 230 114 -87 115 72 131 42 152 118 -89 169 -92 64 121 317 205 -98 -11 -84 -119 -41 957 267 -478 103 8 113 78 121 249 -46 82 83 -71 83 20 70 140 278 78 -14 -90 96 130 8 141 8 242 85 9 6 35 62 37 95 184 92 66 64 40 52 -22 142 7 169 266 -115 -192 113 -75 720 -290 -361 317 52 179 -134 255 93 153 -11 -79 69 182 -5 5 141 127 195 -47 -42 -19 10 355 288 -190 -44 -51 137 257 121 168 -36 -36 -185 -40 447 69 60 84 -126 97 61 173 14 53 -31 91 -64 472 596 -683 -177 192 203 24 99 323 17 -26 -141 -100 294 244 140 203 29 -277 -23 211 92 112 272 -10 -1 71 -49 13 -26 176 208 176 38 -84 121 17 -42 -44 144 234 122 13 42 130 17 -12 -344 438 755 -342 -169 45 -27 249 202 18 -119 64 87 95 18 50 99 220 72 -111 96 57 -16 179 47 135 167 34 26 -150 33 180 85 66 142 13 74 33 -75 -24 -4 318 368 -177 18 -64 36 -148 41 936 -521 -254 6 -57 324 173 154 -17 -121 -20 199 18 -36 125 128 121 62 22 87 -171 256 52 24 153 -79 65 106 -32 87 97 35 56 40 225 -110 -68 182 163 9 210 188 -105 -129 -55 -265 578 744 -501 -59 -111 189 140 78 94 50 50 -98 2 191 133 19 -45 -47 147 205 -22 -73 167 -37 27 85 215 156 -189 -59 115 165 123 -232 144 123 120 -24 134 97 -107 183 -70 -35 124 856 -268 -574 165 27 150 225 205 152 -23 -302 112 -42 119 239 138 93 0 -15 -57 68 121 -52 187 177 -55 -13 153 -33 22 247 128 23 -65 -227 189 305 89 -67 181 255 -180 -45 -252 -18 118 1072 -362 -511 75 -81 267 2 111 -47 259 185 -13 -21'],['VivowatchSE-SNC-0003']
['2020-10-04 13:38:13'],[16.0],['492 1288 1226 824 -835 -3518 -1929 1082 2046 1650 918 167 -1188 -2127 -630 622 945 792 115 -158 -412 -415 206 376 307 537 91 -423 -525 -331 -132 -169 1148 1711 216 429 -2158 -2125 -671 582 3318 1125 -621 -1186 -1457 -863 609 1438 1001 -35 -781 -769 295 648 186 -61 -151 197 129 -101 -35 -311 75 336 289 132 -134 -19 172 -10 -114 -125 -95 31 1057 321 -730 71 114 148 -38 18 79 308 123 -134 99 10 -43 4 110 245 54 177 -173 54 174 -242 -67 198 335 182 -88 -124 85 -13 -90 48 144 234 386 98 -282 -194 -75 -164 551 838 -485 -215 -142 -27 274 259 96 60 -96 -164 93 106 31 220 23 0 190 39 -136 -72 36 175 250 157 -77 -111 -127 98 415 -101 -6 56 162 159 -98 44 -119 -206 252 1002 -193 -823 140 169 185 228 161 -81 -32 88 -142 -51 129 166 250 -155 -58 11 72 51 32 -2 38 89 178 17 -122 145 68 3 32 74 80 -123 -44 -6 209 372 -20 -139 -254 -269 6 945 -134 -349 -49 -99 127 41 278 94 -185 -115 31 85 129 82 155 -20 -217 -158 324 76 -9 139 -78 17 -64 -9 189 83 1 56 29 -60 -102 -84 166 236 137 7 -80 56 -129 -262 -310 910 919 -669 -246 -112 -38 7 138 334 178 0 -154 50 -219 88 164 111 31 -39 56 81 -39 -87 -99 219 208 -63 100 -116 50 65 44 18 -51 -99 56 241 210 -6 -30 -48 -322 -353 562 956 -541 -459 190 153 17 -207 151 62 48 -3 -37 114 -25 42 33 108 -55 -73 -40 -22 240 50 -65 -9 132 -193 190 -36 -105 225 117 -10 -2 -97 -169 113 91 342 -23 -30 -335 -44 -57 406 200 -745 -30 136 534 138 -2 -477 -321 185 182 379 16 -176 22 -10 -73 54 -72 54 89 73 -18 120 1 -124 18 -56 65 124 -89 38 86 -49 157 -60 -22 9 71 162 71 -2 -348 -302 412 922 -260 -480 -40 38 -28 91 300 84 -84 -70 -128 64 138 -18 93 -17 -1 60 19 -94 123 -31 57 129 -139 -39 32 136 182 23 -218 -29 -10 66 45 9 176 30 77 -60 -83 -147 -3 -409 1049 457 -810 31 -134 -90 94 186 146 95 -43 -240 162 35 65 -117 55 124 -54 124 -66 112 109 15 -70 -138 -119 199 292 9 12 -81 49 -18 -156 75 50 -38 298 270 -151 -118 -308 -167 216 1021 9 -958 272 132 29 84 62 197 -115 -128 -8 -164 157 243 176 -60 -117 -31 -152 143 165 -78 -93 2 123 206 113 -173 -75 -27 -230 86 299 18 211 99 -175 -100 -184 -83 -155 1083 442 -910 14 -29 107 159 194 26 89 -115 -130 -185 57 481 96 -18 -202 -139 -39 229 9 -261 306 181 40 20 -119 -73 -168 143 373 15 65 -89 -57 -12 106 124 104 -168 -64 -150 -32 1029 -492 -216 30 -26 -34 -131 350 55 150 -39 -61 24 102 -311 -158 336 262 144 -12 -113 -115 -15 64 121 8 183 -34 67 -53 66 9 -142 88 15 76 60 240 -53 -32 -202 -164 -210 1087 350 -915 -144 65 110 153 243 13 -23 -108 -26 58 76 -52 29 257 51 -2 -146 16 106 -3 -23 247 41 -115 -54 106 178 -18 -42 -80 25 98 105 17 278 -8 -115 -16 -213 -225 475 1058 -432 -595 -14 33 325 36 157 50 -97 94 -151 -105 118 190 203 -33 -92 -18 -38 74 124 -11 95 1 9 125 65 -14 -44 -65 -22 143 94 218 112 -67 -49 -272 -196 103 1146 118 -777 -86 6 81 90 179 184 152 -163 -193 34 128 63 181 45 93 -16 -123 -4 2 49 153 -57 133 123 -36 -41 -36 -33 158 20 34 196 -218 31 316 104 32 -171 -299 -179 458 1052 -259 -509 -164 -25 212 129 183 106 -96 54 -76 10 63 -40 175 167 -93 -32 152 -159 44 183 133 -108 65 68 -21 207 -21 -32 -47 -40 128 128 47 108 54 68 -212 -72 -291 252 1094 -445 -118 -13 59 148 -88 135 72 169 -131 -45 33 82 65 124 -87 101 47 -56 14 48 57 79 34 69 -85 -16 294 -43 -59 -62 38 21 70 323 127 45 -289 -185 -168 -34 1059 230 -478 -125 -36 -17 187 248 80 -26 -19 24 -203 39 206 110 -3 45 -80 136 5 -123 -19 86 43 198 103 -92 3 -110 -116 193 102 -47 129 10 151 -13 -73 -29 2 -292 464 921 -676 -312 -106 187 219 174 49 -98 135 -39 -183 -74 225 70 193 61 -95 51 7 -215 -25 226 225 104 -50 2 -20 -29 -58 143 171 13 -117 84 -126 309 17 -103 -67 -74 -223 301 714 -638 -249 -116 146 227 162 175 -116 -28 -92 -51 126 58 167 34 -33 113 -58 -43 40 13 80 111 89 -112 25 173 -143 123 51 -91 87 -40 -42 22 383 65 -104 -86 -179 -124 169 1118 -242 -707 42 29 246 72 -58 -43 40 13 80 111 89 -112 25 173 -143 123 51 -91 87 -40 -42 22 383 65 -104 -86 -179 -124 169 1118 -242 -707 42 29 246 72 131 79 -30 -180 44 91 18 94 157 121 -67 -94 11 76 63 -56 66 100 204 1 -23 -121 80 124 48 20 25 -16 26 240 36 65 -42 33 -93 -120 -282 894 609 -802 -156 187 190 77 183 -40 -38 117 27 -109 109 -116 216 288 109 -182 -107 -81 37 323 65 59 32 -19 0 51 -63 17 165 125 -80 58 -21 -36 189 217 -50 -74 -79 -86 -202 602 191 -504 22 68 29 -37 104 149 90 -151 163 -48 83 -22 17 335 -40 14 -247 63 191 139 87 -43 -20 -52 145 121 35 -103 -24 101 97 137 145 154 -323 -78 24 110 3 478 152 -727 18 73 51 114 160 147 103 -25 -215 -109 111 163 74 161 93 3 -100 -72 33 87 105 47 52 85 76 52 -84 -80 107 92 -4 41 -45 155 244 -94 -68 -175 -223 -149 1155 -69 -681 39 -12 239 -39 25 203 123 -73 -158 -11 149 43 205 169 39 -209 -53 9 82 107 120 79 -5 88 -80 -38 -27 94 78 -5 147 83 -60 189 -98 52 -155 -101 -197 842 612 -809 -148 -141 192 141 89 137 -173 39 84 -34 28 94 147 -70 -14 82 73 5 -113 147 25 95 58 15 -14 29 29 116 -53 7 11 5 75 283 19 -72 -173 -136 -197 727 817 -855 -243 61 77'],['VivowatchSE-SNC-0003']
['2020-10-28 15:31:24'],[16.0],['-91 -408 -120 26 -5 -241 51 148 -176 -231 -503 -150 418 170 -220 -292 -62 -192 -196 -421 459 530 -721 -270 -108 24 12 -124 -106 188 -148 -130 -273 -181 -123 -128 93 191 -265 -255 -9 -197 264 -256 -534 -448 216 707 257 -112 -838 -619 459 530 -721 -270 -108 24 12 -124 -106 188 -148 -130 -273 -181 -123 -128 93 191 -265 -255 -9 -197 264 -256 -534 -448 216 707 257 -112 -838 -619 170 -99 66 78 9 -78 -21 -256 -90 -306 -200 -377 377 318 59 -243 -477 -94 -303 115 143 39 -199 -364 159 24 -157 -256 -197 -92 198 47 -201 -146 -190 -162 -57 185 -304 -66 259 -250 -198 214 -206 72 -505 -345 170 109 401 -245 -154 -565 -48 -321 -240 1304 254 -1026 -391 -223 271 319 -201 -146 -190 -162 -57 185 -304 -66 259 -250 -198 214 -206 72 -505 -345 170 109 401 -245 -154 -565 -48 -321 -240 1304 254 -1026 -391 -223 271 319 226 -414 -440 245 104 -452 -34 215 -47 159 -533 -24 133 -358 -118 117 -282 542 119 -446 -451 -342 521 -203 -12 180 -472 -113 210 -203 168 -19 -339 -453 94 263 212 -101 -395 235 -107 -258 -802 536 649 -921 -197 -152 54 -189 66 269 -254 -73 105 -206 -324 154 3 423 -288 -698 152 -65 -339 -453 94 263 212 -101 -395 235 -107 -258 -802 536 649 -921 -197 -152 54 -189 66 269 -254 -73 105 -206 -324 154 3 423 -288 -698 152 -65 156 523 -494 -608 212 7 105 -481 1 105 -133 123 171 69 -772 -165 188 -419 62 419 95 -590 228 -5 -390 -106 -475 417 516 -562 -293 -226 156 523 -494 -608 212 7 105 -481 1 105 -133 123 171 69 -772 -165 188 -419 62 419 95 -590 228 -5 -390 -106 -475 417 516 -562 -293 -226 -58 37 -44 370 -315 -168 -127 316 -137 -782 -199 534 382 -358 -206 8 121 -457 -268 475 83 -190 -331 -157 -127 -74 401 -270 183 -94 -710 -269 -58 37 -44 370 -315 -168 -127 316 -137 -782 -199 534 382 -358 -206 8 121 -457 -268 475 83 -190 -331 -157 -127 -74 401 -270 183 -94 -710 -269 458 393 -134 -122 -478 -177 5 -102 845 -585 -612 137 274 94 -371 -103 -131 151 181 -57 -536 -302 2 648 -282 -156 -156 -173 310 -52 -429 -49 -38 144 332 -30 -23 -585 -396 61 251 346 -265 -176 -33 29 112 -343 -188 -117 167 497 104 -336 -512 -299 -48 616 937 -571 -796 -76 279 197 -38 144 332 -30 -23 -585 -396 61 251 346 -265 -176 -33 29 112 -343 -188 -117 167 497 104 -336 -512 -299 -48 616 937 -571 -796 -76 279 197 41 -51 26 -214 42 -154 -410 56 146 108 101 -125 -239 -131 -54 -100 58 313 -251 -158 -42 -167 194 59 -246 -136 76 -120 -138 208 -41 148 41 -51 26 -214 42 -154 -410 56 146 108 101 -125 -239 -131 -54 -100 58 313 -251 -158 -42 -167 194 59 -246 -136 76 -120 -138 208 -41 148 -555 -35 258 -89 121 -178 -31 -215 -176 -40 686 -46 -434 -54 -126 -5 152 41 65 -161 -233 268 -271 -332 260 143 -104 -99 -66 -24 -181 158 26 -143 -20 -189 -72 269 46 -66 34 -65 -645 250 369 65 -313 -170 26 19 301 -244 -105 -519 -388 1076 793 -685 -293 -350 -194 342 212 -56 26 -143 -20 -189 -72 269 46 -66 34 -65 -645 250 369 65 -313 -170 26 19 301 -244 -105 -519 -388 1076 793 -685 -293 -350 -194 342 212 -56 -71 109 -137 -287 -150 24 120 185 -290 19 158 -247 -158 -6 4 19 53 -128 25 -76 -82 -100 3 5 137 -57 -97 -323 -46 263 257 -71 -378 16 -46 -203 43 893 -648 -512 -58 29 215 33 59 4 -202 -246 -127 82 120 -50 -43 -22 85 -263 -207 298 57 -48 8 -326 149 122 -378 16 -46 -203 43 893 -648 -512 -58 29 215 33 59 4 -202 -246 -127 82 120 -50 -43 -22 85 -263 -207 298 57 -48 8 -326 149 122 -96 18 -230 -37 -95 230 -64 -104 44 55 -334 45 40 -102 132 -213 -3 183 161 -170 -237 -227 -93 -235 753 609 -904 -257 -153 60 53 -47 -96 18 -230 -37 -95 230 -64 -104 44 55 -334 45 40 -102 132 -213 -3 183 161 -170 -237 -227 -93 -235 753 609 -904 -257 -153 60 53 -47 290 -47 -202 -45 -47 -120 -24 69 35 -253 125 -122 23 -130 164 -32 -247 -13 -20 113 15 -114 -117 -104 9 163 -230 9 -17 104 1 -135 -259 13 222 87 -26 -259 6 -158 -190 113 664 -283 -235 -58 -103 45 -56 312 24 -171 -421 -37 7 184 -73 207 -106 -207 -44 -302 143 127 -259 13 222 87 -26 -259 6 -158 -190 113 664 -283 -235 -58 -103 45 -56 312 24 -171 -421 -37 7 184 -73 207 -106 -207 -44 -302 143 127 156 -64 -159 -149 -116 170 68 -130 -31 -48 90 -127 -77 -96 -74 176 -41 205 -284 13 -290 -323 391 277 141 -205 -490 -424 26 846 518 -825 156 -64 -159 -149 -116 170 68 -130 -31 -48 90 -127 -77 -96 -74 176 -41 205 -284 13 -290 -323 391 277 141 -205 -490 -424 26 846 518 -825 -310 -36 29 152 15 -9 -3 186 -420 -232 233 -116 -23 128 111 29 -274 -211 -189 143 151 -166 144 -216 -177 231 -78 -264 -68 138 41 46 -310 -36 29 152 15 -9 -3 186 -420 -232 233 -116 -23 128 111 29 -274 -211 -189 143 151 -166 144 -216 -177 231 -78 -264 -68 138 41 46 -219 -179 274 -69 -232 267 -143 -265 6 -60 -36 103 143 -73 -66 -79 -344 -74 -139 528 553 -777 -213 2 113 55 -52 -98 33 -16 25 29 -215 112 -230 223 -87 -138 -51 -67 -200 240 75 -166 -233 -53 187 -54 -52 -178 1 165 27 -89 -180 73 51 -45 0 -305 148 257 -103 -160 -215 112 -230 223 -87 -138 -51 -67 -200 240 75 -166 -233 -53 187 -54 -52 -178 1 165 27 -89 -180 73 51 -45 0 -305 148 257 -103 -160 -135 212 -116 -383 118 174 -299 0 590 -511 -460 81 -51 124 127 -277 95 117 -84 -114 -231 -237 229 344 -18 -50 -231 -57 -10 -15 -165 10 303 -146 -226 -45 -74 233 -172 -233 89 -101 124 33 5 -261 -22 -83 50 280 -68 -468 95 -9 -211 294 -128 217 -35 32 -236 -595 -2 1027 303 -146 -226 -45 -74 233 -172 -233 89 -101 124 33 5 -261 -22 -83 50 280 -68 -468 95 -9 -211 294 -128 217 -35 32 -236 -595 -2 1027 188 -602 -60 -224 72 -38 66 214 -20 -158 -232 116 37 54 11 -100 33 -174 -175 124 161 126 -218 -196 -162 106 106 110 -93 40 -152 -274 188 -602 -60 -224 72 -38 66 214 -20 -158 -232 116 37 54 11 -100 33 -174 -175 124 161 126 -218 -196 -162 106 106 110 -93 40 -152 -274 237 -180 -8 115 111 51 45 -338 -2 45 -18 -123 -24 209 -54 65 -132 -92 175 -211 -375 -113 762 564 -711 -346 -54 59 185 -191 -27 199 -33 -145 -67 -107 -104 135 51 104 -157 -290 -3 173 82 -134 -105 -156 0 181 -47 -99 -7 -58 39 67 -234 58 63 -58 -76 -87 199 166 -33 -145 -67 -107 -104 135 51 104 -157 -290 -3 173 82 -134 -105 -156 0 181 -47 -99 -7 -58 39 67 -234 58 63 -58 -76 -87 199 166 -206 -64 -157 -198 19 167 100 80 193 -261 -145 -120 -330 -149 817 426 -459 -144 -411 178 163 -37 -109 224 -39 -99 -86 -122 23 14 112 -138 30 -93 43 -83 -26 3 -128 258 -151 -53 -18 -169 -39 75 15 -100 184 -214 -174 78 196 -170 -87 -13 -168 39 95 -174 135 81 -196 98 30 -93 43 -83 -26 3 -128 258 -151 -53 -18 -169 -39 75 15 -100 184 -214 -174 78 196 -170 -87 -13 -168 39 95 -174 135 81 -196 98 -83 -415 -262 415 720 -315 -253 -157 -30 164 -67 76 151 -280 -62 -122 -111 263 96 103 -358 -43 -284 169 198 -68 -211 -28 69 7 -5 -75 -83 -415 -262 415 720 -315 -253 -157 -30 164 -67 76 151 -280 -62 -122 -111 263 96 103 -358 -43 -284 169 198 -68 -211 -28 69 7 -5 -75 -238 29 37 213 -51 -203 2 -62 -154 -114 325 -70 -133 -208 267 60 -194 0 -80 -140 111 301 -2 -484 -94 27 102 130 -18 -257 92 214 -238 29 37 213 -51 -203 2 -62 -154 -114 325 -70 -133 -208 267 60 -194 0 -80 -140 111 301 -2 -484 -94 27 102 130 -18 -257 92 214 -249 -119 -76 120 196 -75 -215 37 30 5 -25 -137 -236 161 145 111 -135 -288 -127 17 262 124 -209 -160 -88 98 -28 -126 52 69 0 37'],['VivowatchSE-SNC-0003']
['2020-10-28 15:42:17'],[16.0],['235 4 -358 396 149 385 -571 -124 239 -189 299 207 72 -155 -65 -47 242 -88 294 124 -87 -244 -310 457 612 287 -183 -237 -293 167 152 -95 428 279 -173 33 92 41 -312 466 -677 359 665 -378 379 -142 101 -111 80 13 -200 346 -94 460 296 -314 -363 242 -66 0 263 28 -127 214 136 -122 55 -61 216 -414 411 334 -102 -15 49 114 125 137 -532 251 274 294 -504 -158 1006 -198 -555 9 374 -131 329 1 11 -173 163 -142 189 522 -257 34 -118 -166 371 437 -228 -196 -12 294 164 12 -93 -63 396 77 -247 277 -414 -79 515 185 -47 -93 -39 -168 437 -173 -211 6 510 1002 -608 -38 -188 178 18 -325 -554 -300 294 728 1209 1010 321 -895 -1588 -2390 -1185 -1392 1986 2532 4712 1925 1941 -2714 -4216 -8095 -3666 -2986 5207 8159 15314 8231 5362 -15557 -23928 -32000 -9767 32000 31483 -25774 -25364 -27898 -8799 -549 11012 9741 11448 4074 585 -4748 -4186 -5784 -2683 -3124 551 258 3113 3370 6784 5062 4389 -4373 -10890 -32000 5764 32000 5275 1549 -9529 -7265 -7903 -1069 281 4295 2863 3488 940 -103 -2514 -1986 -1092 -519 573 998 821 122 423 -386 -77 306 -982 -471 -196 18 705 528 -12 -74 -296 -140 126 -252 -201 79 418 195 -59 -125 47 17 -209 -94 164 161 121 67 -54 33 -18 -399 67 118 289 140 55 -131 -266 103 153 294 8 -241 121 67 -195 -112 385 155 -95 37 -18 197 262 -427 -220 44 7 410 434 65 62 -201 -196 -398 -607 126 415 818 734 300 -476 -1418 -783 302 762 1119 659 -373 -191 -209 -471 -663 -266 540 924 94 -62 -290 17 -234 -508 89 257 -27 521 1137 -1100 -651 64 128 87 393 -169 -70 31 -57 -77 224 -96 -231 188 -137 -49 151 105 -201 214 86 -290 107 -25 -141 40 151 193 175 108 -566 -79 118 -124 156 213 465 -41 -183 8 -602 -112 576 55 387 925 -676 -581 199 10 144 14 322 87 79 110 -488 -469 55 330 309 359 -6 -318 -690 602 262 -608 399 192 321 -312 140 -627 -241 824 -261 333 39 -173 352 -28 -633 35 132 125 99 584 129 -104 -777 -598 125 916 687 -466 -398 -25 280 35 33 -361 127 81 400 -148 -197 110 104 200 -277 -435 109 8 124 740 -213 -466 -84 23 46 315 -188 -186 91 230 407 -326 -144 -167 40 87 201 -293 51 347 9 137 -328 -374 -535 829 950 -799 -19 -6 -125 253 -24 85 -65 101 -189 -11 115 100 54 28 -11 -284 111 13 171 35 -55 -273 179 260 -335 -168 176 -19 -5 140 2 59 -159 -152 36 223 -164 12 2 155 2 38 26 -152 -531 303 939 -532 -35 -104 -22 -216 358 -9 95 -161 -284 276 -187 341 -36 -149 129 63 -222 -5 122 58 124 119 -157 -43 -317 145 317 175 -46 -160 -92 -74 131 101 80 -50 0 136 -84 39 -8 -430 64 784 178 -535 44 -151 -112 221 102 -71 296 -299 -68 116 30 -141 74 158 -13 -34 55 -247 37 106 -244 47 184 203 74 0 -348 -425 38 428 324 89 -170 -89 -181 -240 -93 410 148 273 -49 -356 -200 -258 133 1116 -130 -745 115 -26 168 -38 112 -53 11 -25 52 175 -93 -176 -40 125 196 55 -135 -169 204 -26 -140 54 266 -38 -231 68 101 72 -32 1 -159 228 230 -135 -44 -38 -136 -15 200 122 281 3 -284 -38 -79 -273 -9 1019 187 -651 -29 111 -78 103 101 153 49 -98 -119 -81 114 -1 137 108 47 -107 -52 -184 18 338 8 -75 228 -93 -240 -52 -58 222 101 118 166 -194 -244 82 -10 174 220 -73 -38 -260 223 36 194 -288 -80 -23 -74 751 -565 -192 116 32 -26 6 219 128 15 -120 -138 -69 68 253 267 -61 -252 -61 -36 97 318 34 -106 -82 149 11 -63 -93 -58 273 110 -64 -15 15 -251 150 270 -5 -35 -104 -28 -46 249 259 -159 0 -9 -214 -387 121 1039 301 -741 -18 -147 70 180 -75 155 283 -122 -336 34 133 22 41 -18 56 41 -54 146 -175 35 157 -45 44 47 -95 71 93 -18 15 -117 98 159 31 77 -68 -42 -114 -50 129 120 237 42 -79 -80 -274 12 3 821 -328 -611 205 63 104 -6 -47 156 137 -19 44 -396 139 224 124 93 16 -91 -117 1 59 202 10 -187 264 125 -81 -252 -118 215 104 224 -117 15 31 -211 -54 53 242 185 89 -88 -94 -184 12 -160 436 629 -674 88 -65 106 164 -91 52 -7 80 -48 20 -119 157 234 -39 -128 43 -27 -14 96 89 -160 246 68 -62 86 -100 -35 30 83 116 -29 27 51 -103 -12 35 24 100 -24 73 139 -51 -119 -158 -99 96 1022 -496 -482 -101 -113 224 324 86 -4 -85 -157 64 -64 -20 147 151 -62 128 163 -285 105 -81 -83 174 180 72 -214 -19 -28 45 74 132 -57 -68 -95 134 208 -105 -100 -16 -35 172 350 -148 -57 -293 -143 66 302 642 -723 -167 86 -185 201 77 -27 188 -76 -1 204 -306 116 -4 49 -35 242 44 -71 -163 -228 195 252 51 -150 -92 179 -122 -2 143 18 -140 32 301 -155 -88 -85 212 59 -46 152 -4 67 -127 -33 -51 -69 -178 1056 279 -861 -64 -209 179 174 263 162 -70 -119 -53 11 -138 -66 111 336 44 -176 50 52 -24 -180 55 -208 -4 417 185 253 -79 156 -824 -793 721 586 268 -102 -171 -111 5 3 -136 24 116 111 -307 357 602 -730 -463 198 5 116 12 160 131 -1 -93 -231 105 104 78 115 -121 -107 88 25 22 -152 61 289 97 -220 -38 -300 -177 329 302 326 -290 -373 18 299 -43 -222 -12 -8 44 227 312 10 -301 -299 -78 -181 212 1142 -25 -763 -80 81 63 -23 25 1 152 83 37 -63 -186 89 197 -155 1 91 116 157 -46 -161 -12 114 -50 110 44 -26 52 135 -73 -253 -57 180 311 27 -246 37 -161 -119 92 194 334 -37 -102 -50 -212 -401 57 1131 151 -682 -138 -198 429 269 -6 -34 -204 -193 69 42 114 367 302 -340 -294 -825 173 679 222 299 -184 -123 -320 -89 170 69 -90 349 -62 -37 29 -4 -94 110 -41 -140 45 15 268 107 79 -79 -372 -266 276 917 -77 -556 -117 -28 301 89 174 -68 -64 -85 -25 -44 171 152 24 4 -1 -16 -100 -126 151 105 227 61 -172 -194 74 148 -77 283 177 -237 -85 -33 36 113 72 199 72 -181 -176 -21 36 -117 279 928 -562 -471 249 -139 99 168 52 64 120 0 -237 -72 36 103 418 -16 -166 -132 108 34 -3 116 9 17 39 -5 76 -88 6 -11 32 207 108 -184 150 54 -111 -13 -131 99 194 61 62 -63 40 -97 -225 -126 415 979 -482 -502 -24 -102 222 221 93 -70 230 -342 -63 -56 13 379 -42 202 -174 -52 -102 59 122 5 -70 -7 172 49 22 6 -8 -133 -7 75 61 193 -60 207 85 -269 -170 -35 328 55 120 157 -180 98 -66 -165 -171 24 987 -600 -437 339 -87 125 -120 21 121 252 46 -162 -103 -138 32 379 291 -264 -60 17 108 -27 99 75 -194 104 247 -32 70 52 -192 -15 4 269 117 -107 21 119 -19 5 -190 160 49 -157 103 66 126 130 -96 -216 -112 -310 693 723 -632 -10 -237 -43 299 176 34 -81 83 -85 -83 -96 214 289 -69 -185 48 131 40 -55 -109 57 56 137 -2 181 -57 -275 -8 130 224 -6 6 -221 -49 41 294 69 49 -34 -206 53 -209 -131 446 982 -377 -761 87 -102 179 273 243 51 -198 -78 -33 36 110 0 185 -152 13 98 -44 199 -88 -103 -24 71 0 245 -61 -158 82 135 -68 37 21 -136 58 70 -77 148 110 139 10 -331 -84 -33 -155 839 559 -644 -289 -13 -60 202 214 60 41 31 -98 -166 95 83 -45 103 127 -30 90 -201 -92 26 147 168 169 -19 -364 1 204 -55 22 173 -112 46 38 -69 37 -31 38 -31 110 115 103 8 -94 -35 -186 -243 506 876 -544 -430 106 -130 47 161 283 39 -95 -172 36 45 11 19 192 92 -128 13 33 -213 208 112 -81 306 -110 -28 -41 5 -129 128 36 6 206 63 22 -240 -77 -47 -103 278 407 139 -79 -189 -192 -149 -78 139 791 10 -153 -283 -106 105 92 135 35 69 73 -106 -125 -48 194 197 -78 7 36 4 -151 4 162 324 -120 -134 -25 14 118 102 -95 -3 91 -65 15 27 118 -36 -165 197 222 47 34 -202 -133 -233 267 949 -181 -732 242 35 45 -17 61 185 -115 65 37 20 -42 7 -72 83 218 -22 -146 67 11 -6 110 -41 40 75 -135 21 -56 215 340 -79 -232 -7 -36 12 179 -34 227 162 -54 -147 -127 -190 -274 690 1112 -786 -594 146 117 209 -63 -9 12 222 -78 -51 -27 64 -182 211 66 -80 -20 -78 199 2 62 -137 -53 140 51 120 -51 40 13 -152 -34 248 -38 5 26 18 47 -104 17 127 125 -77 59 141 -397 -274 658 807 -661 -452 21 122 191 39 243 56 -212 -333 178 -26 206 98 168 -6 -133 -15 -213 -9 368 32 -113 -67 7 174 2 95 -152 43 -98 21 -33 375 46 -48 58 -222 67 -197 -167 176 955 -85 -526 71 15 6 88 273 -25 -32 -107 -56 64 55 93 -54 81 20 -59 46 -83 206 34 -60 39 -98 134 141 0 -94 -114 -5 290 51 -124 -89 -52 128'],['VivowatchSE-SNC-0003']
['2020-10-28 15:52:13'],[16.0],['2 -44 53 63 391 -583 -118 202 262 242 106 -377 -142 247 -22 54 39 -151 -67 310 411 -261 -398 -90 150 208 120 -129 -239 63 180 -72 81 -60 -21 123 -320 359 -82 -211 131 395 -32 -544 110 -124 209 74 -34 124 16 121 -46 -204 -38 57 161 488 -145 -460 -111 319 240 -10 -111 -32 5 238 -28 -93 -182 -101 79 303 218 -170 72 -164 -154 262 -122 69 -24 68 76 447 -56 -596 10 -209 -134 593 965 -505 -590 -38 247 -59 82 0 -175 55 73 -92 401 271 -322 -215 -299 33 233 315 411 -207 -275 303 -113 -146 13 33 138 205 -100 207 -109 -120 -192 72 120 -66 363 276 -264 -447 -227 217 518 153 -11 -235 -94 -489 251 853 -506 -131 -21 348 -4 -200 106 -220 224 -189 -101 363 9 -130 98 -243 -38 167 139 0 -162 -63 -187 405 202 -287 -59 -299 -140 448 82 -23 -181 58 189 -159 -85 113 -27 55 79 232 -75 -183 -268 -348 653 732 -770 -71 51 159 112 -171 217 -113 -162 -47 203 54 91 11 -95 -171 47 70 54 -24 99 -48 59 119 -135 -193 16 95 111 180 -103 80 -73 -59 -51 36 -8 -104 111 106 220 116 -345 -165 131 86 -26 -280 716 501 -740 -239 -7 -29 171 439 24 -104 -365 24 259 68 -133 -210 -150 -94 553 502 15 -469 -83 -488 -83 161 389 569 496 63 -39 -1393 -1230 1005 926 500 76 -368 -397 29 38 -78 183 43 -96 -327 -125 220 966 552 -825 -1067 330 -114 -15 724 164 367 99 -305 -230 -84 -242 134 276 177 133 -113 -159 -132 417 238 -265 -214 -48 -5 128 289 235 101 -459 48 51 -198 280 24 78 -51 98 -139 131 79 132 -241 80 475 -361 -3 -136 68 353 -213 351 611 -708 -172 262 -155 182 -82 149 160 -32 215 -46 -255 -129 79 212 159 -176 106 179 158 -106 53 -320 -19 251 212 175 -136 13 -225 -71 221 454 76 -152 -218 -38 -103 -20 513 228 -61 -162 -8 -282 -494 781 590 -384 -115 -43 103 34 20 -55 -273 220 329 46 -153 -40 -45 37 120 -61 133 0 98 177 -154 -158 19 208 19 172 76 -22 -299 38 67 169 137 43 -180 -109 46 135 411 -172 -26 -192 -505 373 1064 -759 70 -26 -59 63 8 324 -184 -141 -138 177 276 -80 5 -84 37 165 -164 142 192 -251 -14 333 -44 -45 59 -49 -116 194 226 -127 -24 31 -139 105 238 -118 -71 -57 243 133 -69 70 -312 -45 53 -163 895 -211 -688 99 -48 57 211 23 30 175 -257 -277 272 230 -118 -84 -141 72 8 123 131 76 0 -212 -47 57 136 28 92 -128 15 23 -166 218 83 -136 44 21 -24 33 -96 -151 170 385 -199 -94 137 -288 -205 -120 625 619 -415 -366 39 32 -56 94 -23 -80 277 76 -158 -169 84 94 17 -67 19 -93 171 106 -5 -13 -55 33 -153 -10 22 222 -10 -27 6 71 -76 -38 -83 28 59 131 145 97 -127 -191 -112 -112 57 264 815 -449 -597 224 -73 117 94 -113 164 228 -157 24 -106 -24 -68 -31 196 73 23 57 25 -161 -149 -38 81 161 153 62 4 -117 -118 27 -286 23 499 30 -3 -106 -162 -89 -21 41 53 194 179 -179 92 -130 -207 -165 -314 835 618 -703 -50 -14 3 38 38 37 97 14 -96 73 -156 176 -9 -52 -30 38 63 4 83 -15 -72 -43 83 -41 -33 131 -2 -13 132 -159 -160 108 -23 182 67 2 42 -63 -41 -195 -25 167 203 0 54 9 -32 -247 -217 -174 727 557 -640 32 -9 -121 140 212 -151 4 7 -13 135 66 -1 -74 60 -88 -40 -35 -54 345 140 -225 -108 -9 -74 89 151 -81 84 60 -79 -64 59 -24 29 146 -28 -29 10 -101 -67 115 176 29 32 -185 -19 65 -301 -105 1077 285 -895 -105 -86 145 193 143 5 96 -279 -1 65 106 122 -112 -45 21 66 86 -8 -125 -64 99 -33 194 34 -175 8 -155 303 113 -123 -23 -6 51 -61 -82 162 -32 71 -44 124 7 -24 -154 -132 -294 527 957 -428 -621 -225 55 224 351 108 -53 -162 -211 34 186 77 24 12 -36 -16 25 5 -49 -3 59 33 144 -58 -206 141 -51 -114 164 77 -72 71 -70 -134 187 45 -150 111 -122 113 85 4 65 -56 -107 -239 -84 671 603 -760 -143 32 65 339 -27 65 16 -93 -116 -75 -45 145 62 1 150 65 -138 -148 -87 84 112 99 71 48 4 -96 -252 38 87 152 86 -107 0 -77 46 -33 15 109 -25 26 -24 78 45 -35 -147 -62 -216 390 450 -820 -85 26 143 183 -9 -61 98 -130 -162 222 25 -22 49 -57 -132 143 66 -72 -71 19 43 160 -82 65 -139 -28 -38 70 233 -15 -106 -167 -52 148 44 -30 -8 57 30 34 26 1 -277 -9 -140 559 260 -862 -2 -47 0 311 92 -49 -120 17 10 -166 33 75 335 -87 -154 55 -141 156 38 -19 -69 -3 161 21 46 -182 -73 -53 171 95 -24 108 -113 -38 106 -160 -15 60 -33 133 -14 176 -111 -12 28 -219 -350 643 792 -583 -330 -88 53 205 92 122 -42 -93 -127 152 14 -22 115 -51 4 36 19 -103 69 6 50 110 -68 26 -98 -126 245 50 -2 -84 -159 97 71 46 -46 126 -62 -166 -2 -34 234 73 84 -10 -224 -32 -273 151 928 -170 -489 40 111 150 7 -6 60 -77 -44 90 12 0 -108 167 3 112 -39 -196 74 148 -12 -86 68 -27 23 84 -19 47 22 -164 -85 259 126 7 58 -208 -85 153 9 41 206 -128 24 125 -182 -135 -148 369 373 -584 -80 -91 135 40 32 189 44 -77 -53 -4 -66 48 -19 169 59 -31 -17 3 -116 116 1 30 -86 32 56 71 50 -106 19 19 -10 -14 25 3 -71 117 175 -14 96 -28 -351 -150 -246 883 772 -791 -27 -102 -81 -32 107 290 89 -81 -115 -124 -7 116 31 -63 -16 3 135 116 -179 36 35 -64 81 92 -122 42 17 30 14 11 36 35 -47 -49 -21 49 14 -164 151 136 83 -46 -57 10 -208 -300 281 1009 -698 -217 36 -109 158 104 21 -79 -22 25 78 -12 24 -75 42 1 -27 1 71 -1 37 -22 17 -11 0 43 69 -82 -49 24 93 73 -35 171 -237 -30 42 -88 161 -57 -46 22 238 59 -166 -22 -219 -94 -38 594 676 -675 -549 37 239 169 73 -119 -101 179 31 -19 -101 -107 4 168 49 128 -13 -199 -74 154 -2 -115 103 223 -84 -111 22 -56 95 106 0 -214 172 93 7 70 -100 -13 28 -12 -58 20 95 92 131 -26 -157 -156 -337 166 954 -689 -358 209 -66 59 123 72 -96 88 -60 -15 -19 134 11 86 -3 -214 79 199 -32 79 73 -161 -99 223 84 -25 142 -132 -126 139 78 152 128 -124 -193 113 16 -29 202 -18 144 -58 -70 9 72 -212 -245 445 865 -384 -431 6 -80 130 109 181 -24 36 -68 133 -195 -42 168 69 -86 71 114 8 -69 -146 127 81 77 -30 18 -20 -68 138 8 1 168 -105 -55 183 -83 38 131 94 -184 -61 -43 20 297 171 -129 -138 -77 -127 -30 602 -97 -427 52 -90 228 -50 146 50 -101 66 48 -192 118 57 42 159 -91 -60 -39 202 -57 -34 -5 32 41 92 32 -155 -7 -12 30 263 30 -127 -81 -4 44 85 19 -133 62 122 -32 165 -69 -132 66 -157 -252 440 1025 -506 -707 62 -57 213 211 239 -163 -76 -16 -149 -22 117 -27 225 -59 -129 97 -233 90 93 22 105 62 -125 -69 14 -1 66 93 82 -24 -62 -85 -10 175 40 -69 -96 69 189 10 124 -88 -181 -164 -121 172 987 -38 -869 73 49 106 77 76 98 -37 0 -107 13 -80 35 91 -35 145 -107 -85 73 50 -111 12 -44 90 119 3 -85 -37 -13 50 78 -20 -51 -35 21 22 238 -69 -54 12 -267 -368 84 1192 -529 -600 178 -209 75 142 203 -91 95 -168 -30 -44 115 111 15 -228 -124 263 -16 124 -53 -101 -136 67 199 7 18 -143 17 107 -43 12 -85 -58 17 190 -122 58 -30 -41 -2 61 192 -79 -160 -279 66 839 -635 -316 146 -70 229 -74 143 -2 -61 -62 -5 9 94 44 -16 -82 46 -50 155 79 -130 -62 -58 82 160 -45 139 -103 -144 92 -30 -34 -1 159 35 49 -98 -135 -57 99 80 121 78 -5 -158 -131 -330 323 939 -224 -556 -56 17 56 145 0 -27 201 -97 -14 -50 35 0 -95 165 17 42 -130 110 38 -130 -51 51 133 0 157 -138 -27 19 -39 -20 157 115 -101 213 -131 -183 20 62 2 112 -57 201 178 -144 -236 -177 -355 428 1083 -417 -256 17 -141 37 165 25 -109 83 348 -222 29 -52 -134 94 33 76 69 119 -60 -37 -20 -208 -16 285 -43 48 32 -95 -34 54 -39 147 25 -186 -68 130 33 224 -85 -48 112 -98 -324 -164 238 1087 -60 -846 -31 33 117 48 179 119 -86 -208 39 -10 116 12 -129 215 160 -309 13 106 -9 72 3 -5 -68 19 42 45 37 -188 -33 172 116 -176 -69 101 95 -3 -128 -27 -50 270 156 35 -181 -176 -77 -208 247 895 -543 -303 -79 -43 178 66 88 12 11 -98 -112 78 -6 -68 163 -48 -8 36 96 -196 -94 57 139 186 -217 -52 211 -61 -165 53 59 -103 203 34 -98 56 -82 -115 40 56 3 140 195 -149 -148 -36 -282 21 132 982 -126 -802 -69 47 65 112 201 40 -55 6 -198 -9 40 81 91 -56 73 -40 58 -106 -85 54 94 -22 92 -174 109 29 74 -33 -203 104 62 136 17 -10 -94 46 -279 25 183 94 63 -38 64 -210 -16 -97 -301 599 794 -680 -54 -68 -9 118 9 205 -34 -38 -30 42 -129 52 -14 107 -8 122 -26 -265 168 52 -32 101 -26 31 -74 61 -107 -84 257 -127 204 -54 39 -110 -65 -54 137 17 62 76 -18 83 -71 -223 -104 -185 477 822 -737 -196 -29 127 70 -14 51 175 -4 4 -170 -161 144 178 -68 -31 65 -105 66 59 153 -70 -118 -76 -116 240 193 47 98 -373 104 162 53 -213 14 125 -74 275 10 34 -52 -51 -150 -121 -135 262 943 -501 -189 93 -42 148 -83 213 -99 -12 -78 -37 253 26 -97 145 -120 -86 62 19 144 111 -154 -73 61 125 -172 88 19 -26 82 78 -72 4 -38 57 160 -244 20 -120 243 217 92 75 -330 -371 -147 128 1056 57 -514 17 -75 82 130 21 -159 206 130 110 -152 10 -177 103 -26 1 126 171 -28 -101 -122 -90 68 127 46 11 -4 -7 -29 59 -60 -120 95 -40 164 76 -107 -55 103 2 217 -114 -139 -157 -187 956 368 -928 145 159 -108 204 -30 42 -52 -54 17 157 151 -179 -200 140 161 46 133 -147 -97 64 102 69 -35 -36 40 -27 -21 65 80 -91 73 33 -46 -156 104 179 39 -114 -23 108 -71 0 -261 -170 922 405 -978 -48 -67 125 172 28 -14 38 90 -175 -135 -44 92 268 -118 -46 -55 13 194 -45 0 -169 67 -21 -88 150 197 56 -66 -91 -219 -173 60 217 334 91 11 -245 -135 -129 -143 231 702 -159 -263 77 44 66 -179 60 148 4 -93 28 -113 140 -28 68 -50 121 -71 25 -205 61 209 -145 123 -90 133 72 -5 -94 -16 -177 177 59 34 57 103 38 -110 8 -45 -207 -110 0 1053 -61 -843 -65 -156 195 139 260 -11 -103 -83 -50 24 -3 1 5 179 24 44 -32 -170 -83 126 129 64 65 -182 173 7 -224 44 72 116 -14 34 69 -25 42 -81 -90 -152 -189 974 -243 -483 37 46 -44 82 259 -136 123 7 -144 62 -53 22 78 78 -9 36 1 -31 -47 3 58 66 74 21 -141 89 68 -126 222 -28 -35 16 -29 79 200 -122 102 35 -177 -301 -138 936 347 -584 -107 -165 -47 120 176 215 88 -178 -107 -86 40 202 24 28 -80 78 52 -121 56 -24 29 112 -15 -22 94 -49 -209 119 65 58 118 32 -172 3 1 -100 109 67 94 86 26 72 -245 -237 -62 359 1017 -429 -677 134 24 114 117 0 34 -52 27 -59 46 134 36 -173 -48 79 64 177 -94 94 -110 -56 0 27 1 231 -123 63 -70 -102 189 -71 -55 34 49 -57 165 118 -60 -97 14 -320 -79 192 931 -130 -733 -61 94 123 -43 177 -10 -63 -66 161 -43 -55 66 -111 52 87 36 51 -161 -126 84 157 46 60 -118 -214 49 212 -56 22 -15 -119 -46 192 44 162 -142 -257 145 -47 -116 126 295 42 -63 -5 -210 -209 -348 562 860 -501 -260 -105 58 -131 221 68 90 -158 -18 158 -131'],['VivowatchSE-SNC-0003']
