Time,ECG_DATA,TYPE
['2020-07-03 13:15:55'],['123 283 51 238 42 -20 -86 115 130 188 136 -93 39 40 -147 282 -147 244 -100 297 195 348 -249 17 -517 -153 -158 305 2139 -1878 -615 194 200 277 224 96 -189 174 -94 180 40 219 126 -154 -90 181 74 69 -69 31 116 127 279 394 -52 -431 -500 24 -181 2730 32 -2328 354 309 318 140 68 -35 40 -29 100 56 119 206 36 -120 53 -84 225 13 372 -62 -96 -122 160 248 451 113 -135 -370 -40 -478 149 2674 -1746 -710 352 114 305 0 176 18 -42 -73 98 192 44 154 -5 -35 20 -34 205 138 13 -163 39 195 137 287 30 99 -210 -447 -768 967 2879 -1440 -1578 368 236 528 -7 161 -138 -16 9 70 128 247 101 -137 0 -49 67 259 128 172 -186 -192 212 47 405 187 -158 85 -416 125 -234 1300 -180 -1283 332 192 148 114 141 -111 245 -141 -156 100 310 248 -1 -318 -22 274 133 10 -8 -57 132 79 -85 139 538 51 127 -404 -390 -724 1147 2766 -1701 -1303 376 296 222 27 107 41 -85 -13 201 -51 218 95 76 -33 -18 -143 131 122 185 -32 -3 164 318 -66 221 -381 -286 -478 306 2624 -1703 -768 222 174 535 11 -116 3 120 -110 106 120 343 -128 -63 -50 14 -126 396 225 80 -203 -90 -2 241 26 207 424 -22 -221 -357 -674 139 3106 -487 -2036 237 234 510 245 -2 -183 66 -127 209 -93 309 73 115 -10 -124 249 33 -297 257 235 -71 237 16 280 -200 93 -260 -168 -330 -33 2455 -1595 -1106 440 114 343 179 6 -124 -6 -25 240 172 -2 -102 197 -148 19 1 317 270 72 -372 -31 -128 230 258 407 320 -26 -686 -269 -926 1263 2507 -1573 -105 -13 95 95 72 60 222 56 17 60 55 100 -37 5 30 80 10 229 107 39 -177 -302 149 373 418 126 -86 -524 -390 -319 710 2763 -1342 -1349 477 -181 405 65 147 49 150 -201 181 53 -71 50 188 58 72 59 81 146 -304 -69 -22 212 479 523 120 -527 -617 -304 -382 2759 816 -2482 573 1 328 24 178 -58 -16 107 211 98 -181 325 -102 -224 122 -13 184 381 -186 -146 -118 120 164 577 -71 -61 -610 133 -652 458 1918 -2190 -537 559 342 224 73 -165 -114 120 -192 173 206 288 -41 -15 -131 8 -159 127 200 83 11 -47 210 358 33 -176 -329 -593 -77 71 3198 -277 -2812 78 127 504 545 336 -34 -262 -473 284 33 356 203 76 -175 129 -132 -66 163 11 -59 70 214 64 426 32 -227 -637 -132 -699 1980 1261 -1694 284 35 226 -83 -23 99 152 -27 -58 89 264 -57 -50 -43 25 22 14 167 -189 45 96 10 99 381 -37 106 -621 -336 -690 1536 2534 -1981 -928 253 3 183 281 127 -114 -31 -7 159 -193 223 -86 101 5 85 39 75 23 -38 -1 -36 203 306 164 -86 -131 -197 -424 -323 2704 -294 -2208 868 155 307 -28 70 -324 242 17 3 141 155 49 18 -171 -10 180 76 -128 168 -88 189 5 239 12 104 -275 -85 -153 -322 2075 -1240 -721 381 170 264 -38 35 -59 -209 54 273 230 -45 149 -64 -239 24 -29 114 43 142 59 307 212 -199 -419 -235 -297 374 23 2464 -1101 -2322 504 225 568 307 274 -301 -364 -145 260 144 27 32 -5 -32 136 57 29 -36 114 -43 -92 16 194 159 382 -11 25 -668 -99 -698 1604 2009 -2167 23 54 269 257 239 -72 75 28 -39 39 -146 210 -59 219 111 161 15 -44 -437 -224 389 428 22 504 -102 -326 -384 -439 -208 -276 2896 -812 -1684 248 -27 237 216 85 -23 -16 25 -39 265 68 -209 182 -131 102 43 129 22 121 -99 -335 176 155 491 332 -151 -124 -732 -268 -251 2702 204 -2005 440 -54 358 -110 174 -130 -96 -36 645 229 -136 -203 -79 -138 127 139 294 129 4 -154 -300 312 130 139 164 -28 -122 -312 -41 -1018 2399 1185 -2404 -125 149 193'],0
['2020-07-06 07:12:12'],['383 289 394 -52 46 173 -73 -66 -258 65 484 370 509 104 -30 -654 -633 -1079 2439 2147 -1260 -398 -509 41 17 455 163 188 123 330 187 -149 -168 -57 -2 0 394 435 265 -27 126 -150 -367 -163 498 244 439 341 229 -252 -364 -1305 1746 1489 -1378 -29 337 582 -126 -219 -304 48 290 311 108 381 263 -45 -166 -445 -36 313 812 341 179 -336 -143 -347 108 399 740 464 110 -532 -565 -824 111 3168 -1078 -608 -150 -288 237 79 393 282 153 -16 116 96 -108 -200 229 -18 279 352 178 95 178 25 -247 -388 -160 781 632 614 322 -164 -718 -490 -1118 582 3392 -241 -642 -134 -204 -39 13 263 304 412 -64 355 71 -43 -215 -6 75 121 170 360 265 29 -168 249 -27 -288 -114 166 547 413 564 52 -390 -425 -788 -890 2841 1634 -1330 -308 -446 206 312 299 -61 317 113 295 97 -149 -78 61 147 -20 313 124 81 251 200 -101 70 48 -247 -17 305 529 353 151 81 -244 -411 -1040 -163 3276 -721 -948 -302 -327 444 204 281 -113 219 50 270 70 -17 30 60 -255 35 373 497 41 -149 26 114 -12 -310 32 441 392 533 100 -27 -583 -365 -1217 1338 2913 -1581 -451 -298 104 229 133 304 128 -5 21 163 -9 298 48 -318 57 195 242 -20 247 210 47 95 5 -211 -218 214 184 387 418 243 2 -280 -623 -400 -981 3208 901 -1637 -240 -519 167 -12 650 223 235 22 3 -100 -2 49 -79 414 -144 197 220 206 126 -28 83 26 -213 -23 12 81 411 669 210 -123 -399 -625 -902 540 3469 -163 -1491 -93 -377 119 105 402 462 174 -154 106 -43 59 3 -56 183 75 164 173 105 85 44 31 -307 8 63 225 442 479 33 -235 -625 -423 -1096 2776 1819 -1890 -551 -156 82 0 264 409 313 20 65 -144 -36 -36 62 174 136 99 -51 246 250 76 -62 -174 -68 -56 267 368 391 184 -144 -123 -514 -252 -1090 2895 1466 -2018 -522 -137 74 279 323 320 41 109 -35 -61 -187 172 428 7 -24 -46 163 105 172 128 190 19 -207 -266 -70 203 361 577 381 -24 -426 -539 -676 -539 3218 1217 -1404 -467 -543 -160 209 679 140 348 99 20 -191 -129 15 112 186 -58 229 277 257 -43 -118 -103 -122 87 -124 296 543 333 9 -64 -515 -461 -1376 2389 2067 -1410 -443 -189 -19 -327 463 300 110 228 -1 161 -120 -23 -3 -36 159 -30 -55 270 286 175 242 -200 -313 -230 -61 276 287 584 324 -79 -15 -621 -576 -1170 2931 1958 -1815 -367 -479 255 -32 385 273 -26 199 87 21 -41 -184 4 66 93 361 166 85 10 -152 102 -109 -187 71 197 441 498 -71 -191 -589 -311 -1200 2059 2492 -1489 -781 -297 44 -9 456 104 -52 207 95 157 -21 -151 -224 132 241 -46 102 170 191 98 -12 -201 -136 62 -83 298 602 163 -153 -403 -399 -435 -607 3196 -328 -1785 -50 -264 513 272 187 -143 161 23 -19 -110 93 117 43 190 4 -111 138 251 117 -152 146 -222 113 -17 99 203 442 30 -151 -581 -165 -535 675 2020 -1908 -579 -20 216 271 193 237 79 -70 -140 101 74 49 1 159 -31 177 -77 83 135 -35 36 193 -55 -160 -47 240 248 286 102 -222 -370 10 -879 1294 694 -991 -61 -251 -84 53 429 24 69 77 22 3 112 -69 1 47 -111 94 201 205 115 -95 132 54 -236 -166 1 139 279 415 464 -241 -231 -444 -588 -1243 2632 1924 -1526 -449 -442 -248 94 383 248 239 97 10 23 -133 -27 -199 220 261 -206 108 228 291 92 -111 102 -261 -276 -20 128 384 500 245 44 -243 -545 -677 -842 3040 1499 -1784 -428 -389 407 44 149 382 -95 -10 -109 119 246 282 -146 -184 -39 -57 159 187 233 165 -33 -320 -10 -114 159 107 509 253 144 -718 -418 -947 1649 2611 -1668 -956 -55 130 58 226 347 43 57 -157 -32 73 65 186 96 -75 -156 102 213 192 111 4 48 -248 -196 -244 390 352 578 57 -60 -537 -628 -546 410 3177 -359 -1400 -172 -397 193 203 394 8 144 -43 174 34 -85 -92 -17 -6 150 45 69 182 11 204 99 -155 -256 -221 -8 16 515 327 431 -34 -207 -689 -240 -1330 1478 3056 -1141 -919 -532 29 -53 313 423 75 18 -26 63 170 -90 -201 61 -21 26 42 251 197 156 -58 -104 -46 -154 -48 -177 284 414 587 178 -81 -626 -565 -988 172 3311 -92 -890 -322 -276 224 77 240 93 178 141 121 -257 -62 -34 35 122 -68 190 216 134 -69 -66 -49 -245 -14'],0
['2020-07-22 05:11:53'],['86 70 -116 -120 -75 -102 141 -157 -187 -49 159 -85 72 -40 -172 -249 -188 32 97 92 332 183 -209 -579 -438 -798 -74 2667 -1070 -744 -195 -494 195 1 242 -87 1 -171 -71 -105 134 -60 -120 -127 -85 -14 25 -20 68 -38 -130 -193 -117 105 99 36 21 -148 -51 -223 -162 5 -62 14 461 172 -201 -291 -579 -609 -409 2894 396 -1823 -267 -260 167 28 164 -25 80 -181 98 -187 -42 -108 -23 -59 53 28 -36 80 -179 101 -361 -1 14 64 29 -80 54 25 -95 -175 -144 -126 -159 124 234 463 70 -258 -513 -485 -1015 408 2870 -676 -753 -77 -267 58 -44 172 54 206 -132 -134 -202 -1 -3 4 -54 -6 -92 2 -27 2 -60 66 -62 -208 -70 90 145 27 -50 -182 -119 -32 -131 65 182 335 -212 -136 -384 -73 -854 41 2361 -1586 -923 -47 -26 238 161 130 -87 58 -204 -168 -145 236 -25 77 -36 -26 -73 -163 -32 64 11 -39 -67 -13 -70 93 -66 15 156 -263 -305 -36 -59 19 200 391 92 -179 -441 -534 -751 79 2997 -336 -1804 -116 -115 238 86 296 -46 17 -233 98 -180 -98 53 62 0 -51 -89 37 54 -64 -95 -20 12 -136 -96 81 202 -38 -14 -160 -97 -201 -30 -249 283 236 439 20 -166 -499 -474 -844 160 2830 -1214 -697 -200 -365 63 255 -9 -8 108 17 8 -329 32 55 43 47 -44 -90 -89 -132 225 -23 76 -27 -163 -48 -7 51 52 51 -22 213 -329 -298 -144 69 349 444 41 -125 -597 -497 -1005 777 2889 -965 -1158 -231 -118 134 119 332 -39 139 -266 -99 -56 132 -39 -63 46 -123 -11 -23 17 112 -22 -112 -35 -44 -73 -17 122 -70 99 -8 -172 -30 -48 91 -90 -72 239 268 -131 -350 -374 -119 -274 1671 -448 -1247 124 -123 37 128 291 -64 17 -203 -89 -10 -71 11 56 -56 105 168 -51 -342 -11 93 -59 -58 93 84 23 -77 -86 6 -75 191 28 -147 -118 -140 -32 284 380 127 -268 -100 -468 -508 -730 2453 1264 -2145 -66 -123 150 83 293 16 89 -100 -63 -117 -53 14 22 -47 59 61 15 40 -187 -23 99 125 -223 -5 1 -33 -76 210 43 -133 50 36 -218 -85 -98 -236 424 425 151 -191 -172 -658 -491 -768 2521 1234 -1858 -305 -379 157 29 215 174 183 -198 -214 -2 99 -58 -48 -93 123 54 -134 167 -109 61 -24 -35 8 5 -113 -44 129 -41 158 190 -14 -257 -192 -122 7 85 135 244 438 -91 -312 -528 -546 -831 2229 1836 -1726 -583 -340 90 48 227 301 51 -96 -46 81 -199 -68 -41 160 -2 -72 45 -2 -3 27 -56 -111 -7 180 -100 88 -160 130 -67 56 -8 -88 83 -114 -286 24 242 294 106 -143 -342 -422 -625 -429 2993 -976 -1353 14 -354 266 210 410 -112 -61 -179 36 -136 31 -3 143 -12 28 -168 -5 78 -9 66 99 -178 -132 27 -36 132 -134 230 92 76 -83 -251 -312 85 83 149 335 226 12 -170 -560 -309 -647 308 2617 -1402 -726 28 -296 142 132 218 -87 21 -45 6 -39 -76 -33 109 -84 87 23 56 -147 12 71 -63 -107 110 60 65 38 70 -326 -218 563 288 48 -328 -330 -117 267 175 513 27 -52 -614 -453 -923 596 2994 -843 -785 -157 -280 110 120 312 239 202 -177 -307 -277 -90 180 302 -3 84 -94 -112 -172 147 73 15 151 -185 -72 -127 191 44 181 -37 2 -3 -155 -188 -121 89 275 268 199 -148 -116 -383 -548 -1058 1819 2399 -1875 -675 -347 7 156 100 348 12 -31 -185 -40 -39 30 -56 35 96 104 -75 -70 -70 -27 -107 66 134 277 176 -476 -203 -120 62 485 284 -341 -79 -252 -112 282 511 -208 -143 -389 -156 -494 -136 2672 -1494 -1381 155 -71 319 114 248 125 -35 -238 -115 -19 13 -282 243 301 99 -142 -171 -138 35 109 46 -33 -108 32 17 44 -34 57 138 -113 -45 -117 -100 -211 244 289 354 -25 -212 -274 -492 -619 -349 2786 223 -1282 32 -228 202 -60 214 -41 162 30 15 -153 -118 -60 98 -74 59 39 120 -80 -128 69 -131 34 53 -46 -46 45 -42 47 80 20 8 31 -299 -205 -80 194 403 401 -69 -231 -359 -306 -863 267 2863 -556 -1494 23 -156 248 28 60 54 107 -67 -3 -125 -105 82 45 -125 37 39 41 -133 76 173 -50 -124 -56 24 44 -2 -83 72 18 164 -167 9 -2 -218 -152 29 258 347 189 -24 -508 -638 -729 429 3020 -785 -1610 71 -106 236 -23 445 2 -92 -56 -27 -114 75 -52 57 -12 1 -93 31 166 16 -123 -6 -21 96 -56 -223 178 -35 214 -23 16 -100 -66 -123 35 -34 19 146 358 145 -110 -297 -642 -453 19 3112 -287 -1881 -47 -156 238 118 225 36 113 -147 -40 -212 96 40 95 35 -54 2 0 6 45 -10 62 -38 -73 54 -14 -8 35 -1 -36 81 166 -176 86 -58 -252 -87 238 209 371 -58 -207 -638 -141 -877 1806 2059 -1712 -749 -409 14 229 459 0 170 36 -202 -71 -405 -75 177 393 -18 216 -216 -272 43 188 -84 -46 240 74 -186 -100 246 -113 92 66 -96 -125 50 4 22 1 -86 59 341 -86 303 -433 -532 -351 -482 2863 -1017 -1294 117 -178 205 92 550 -55 -81 -187 -167 118 122 78 14 -119 104 -82 34 30 32 -57 104 -8 169 -124 -126 31 -96 104 234 82 -142 125 4 -100 -143 -234 2 237 706 -40 -21 -299 -630 -406 -1076 2909 704 -1588 -234 -366 39 -9 301 265 120 -50 -13 -255 44 75 19 145 -112 114 -2 -76 67 -39 200 -36 38 -54 -136 -115 131 59 20 193 -4 18 -118 6 -255 165 -161 -78 395 525 -122 -63 -520 -404 -1136 1640 2452 -1513 -616 -158 -122 -138 343 255 -8 253 -214 0 -125 60 1 121 170 -238 55 124 -17 -19 57 98 -60 -97 90 54 -153 153 14 41 70 129 -157 63 -120 -162 303 130 468 -366 -103 -345 60 -638 669 1611 -1908 -560 77 30 327 346 83 45 -125 -344 -27 136 85 -20 250 -14 -18 -35 26 -108 73 121 -29 -78 6 253 -124 34 -1 238 -63 -193 -109 103 -89 141 254 410 43 -194 -240 -472 -730 364 3091 -650 -1584 16 -401 259 102 319 324'],0
['2020-07-22 15:48:24'],['-1025 -3 -300 250 46 200 126 50 -79 -144 191 -34 2 46 -111 -160 109 271 99 205 -174 -86 -227 -54 14 156 510 175 -191 -41 -550 -12 -621 1464 390 -1811 171 61 81 195 131 -154 97 -7 -43 -15 131 -65 36 -26 64 25 -137 145 327 -174 263 -110 -374 -137 169 579 297 209 -180 -434 -419 -889 24 3061 -1203 -970 -17 -82 136 -217 341 47 259 -153 64 33 -49 -1 -148 -81 188 58 192 -34 223 51 -163 -365 31 2 79 357 577 119 -226 -353 -359 -1032 179 3006 -1309 -701 11 -92 123 -159 96 136 266 87 41 -57 -136 -137 119 -138 142 67 352 -71 55 -60 -124 -171 -72 72 283 278 440 -36 -117 -390 -272 -888 -239 3371 -1074 -1152 -242 -143 269 -58 331 28 31 -42 224 123 -74 -298 -125 -60 236 237 168 -102 137 -88 -8 -296 200 -139 131 214 416 287 -219 -303 -467 -459 -118 2767 -1302 -981 368 -249 191 -36 214 230 -51 -39 103 -67 64 47 76 -194 -34 -1 292 159 106 -11 -99 -78 -161 -18 76 267 353 287 -216 35 -519 -207 -761 932 1593 -1571 -358 -103 -17 87 207 69 164 286 -166 -41 -71 -63 121 169 -156 -199 430 122 -92 96 -31 27 33 -226 -42 -133 89 492 343 47 -24 -196 -667 -662 -273 3612 223 -1926 -126 -457 440 127 183 -34 190 -35 134 -18 -21 59 -14 -46 0 -156 231 38 173 132 237 -267 -2 -142 -410 176 184 317 293 491 -83 -304 -752 -264 -1121 2914 1805 -2364 7 -319 313 189 232 -219 257 53 -25 191 63 56 -95 -240 -137 193 101 224 133 122 -13 -167 99 -446 -87 141 491 352 472 -134 -244 -567 -241 -1111 1249 2990 -2017 -371 -386 117 273 193 122 -35 -184 100 205 -107 161 -35 77 -274 -103 49 315 267 53 112 -219 1 -465 170 183 28 278 426 77 -261 -388 -345 -923 -282 3608 -1237 -1625 -64 -60 320 202 331 57 127 -472 -8 211 159 -143 138 135 -100 -306 56 346 292 49 -28 4 -12 -326 -28 -80 204 179 450 321 140 -492 -711 -1289 285 3640 -233 -1512 -249 -124 -28 204 342 -7 206 -164 99 208 -4 -274 155 -53 -18 -156 187 226 -39 189 79 126 -165 -163 -299 -77 95 512 436 423 -47 -237 -569 -499 -1362 1012 3594 -1684 -700 -437 -163 143 55 294 45 179 45 -27 97 -134 -148 101 -118 74 -4 239 184 -3 220 -32 -212 -176 -225 214 -20 267 302 485 -255 -10 -774 -397 -1180 2453 2613 -2302 -533 -250 -153 108 308 405 219 -322 -140 78 46 87 -186 164 41 112 -217 -87 106 273 332 -90 -105 -113 -270 -95 -147 531 395 501 -144 -145 -671 -405 -1126 1834 2971 -2041 -965 -110 153 185 12 233 73 52 -170 41 247 -118 37 24 -151 -37 -3 129 39 263 -18 208 -56 -205 -272 0 -117 287 468 409 169 -48 -775 -384 -929 -90 3469 -1211 -704 -362 -446 384 -61 511 -269 120 -12 49 205 -17 -81 -68 37 -50 -134 219 66 164 93 286 -102 -191 -162 -62 11 -138 441 498 259 -141 -59 -799 -520 -1101 2930 2043 -2135 -565 -337 192 156 375 192 -51 -162 73 263 -50 -76 37 226 -223 -248 142 133 64 233 126 -17 -117 -70 -179 -164 5 142 448 364 181 -77 -379 -464 -677 -850 2944 1162 -1716 195 -332 267 36 -12 22 256 62 2 56 70 -92 -4 -107 -35 122 26 101 87 76 307 -82 -194 -269 -44 -7 171 349 458 -60 -38 -407 -558 -414 -891 3657 -601 -1899 7 -97 621 -272 347 -55 -12 161 -11 -129 143 125 90 -58 -53 -252 74 120 159 444 7 -38 -252 -55 -273 51 7 221 487 484 82 -131 -508 -602 -774 23 3726 -210 -1798 -201 -186 287 168 115 -128 255 -110 225 -176 158 5 31 -78 -155 5 237 16 1 156 197 390 -134 -333 -414 13 57 268 254 601 71 -288 -161 -736 -566 -1570 3847 1082 -2137 -382 -247 194 29 90 41 282 -22 -29 133 120 -223 212 -63 -209 -42 39 185 125 67 328 -110 -142 -108 -24 -244 -89 97 366 487 259 -122 -41 -498 -671 -1254 830 3560 -805 -708 -302 -359 128 108 349 175 27 -14 149 -189 59 -43 -62 40 125 -185 -36 230 144 157 -85 139 -36 -239 -225 -88 43 342 474 544 -139 -448 -467 -586 -554 447 3677 -586 -1948 -44 -212 172 38 332 138 144 -77 -1 -188 90 159 31 -99 22 -159 98 74 192 74 25 -20 25 37 -57 -190'],0
