-1.798037313133578,-1.7976866912003704,-1.7975904280237835,-1.7975444949176058,-1.7974734058018873,-1.7973821414113633,-1.7972876528254442,-1.797196251989206,-1.7971071028848433,-1.7970184107763503,-1.7969294854950513,-1.796840369721075,-1.7967512222220008,-1.7966621053249452,-1.7965730138187737,-1.7964839320532606,-1.7963948539586365,-1.7963057801928115,-1.7962167125617912,-1.796127652009909,-1.796038598849154,-1.7959495532825214,-1.7958605155964462,-1.7957714861393423,-1.7956824652710437,-1.7955934533437716,-1.7955044507038402,-1.7954154576964658,-1.795326474667592,-1.795237501963741,-1.7951485399315454,-1.7950595889175402,-1.7949706492682442,-1.794881721330157,-1.7947928054497755,-1.7947039019735995,-1.7946150112481423,-1.7945261336199105,-1.794437269435417,-1.7943484190411523,-1.7942595827836234,-1.794170761009347,-1.7940819540648278,-1.793993162296569,-1.7939043860510697,-1.7938156256748425,-1.793726881514404,-1.7936381539162416,-1.7935494432268606,-1.7934607497927844,-1.7933720739605068,-1.793283416076548,-1.793194776487387,-1.793106155539558,-1.7930175535795567,-1.7929289709538812,-1.7928404080090372,-1.792751865091538,-1.7926633425479004,-1.7925748407246105,-1.7924863599681808,-1.792397900625132,-1.7923094630419496,-1.7922210475651443,-1.7921326545412373,-1.7920442843167135,-1.7919559372380882,-1.7918676136518834,-1.7917793139045766,-1.7916910383426816,-1.7916027873127267,-1.7915145611611973,-1.7914263602346066,-1.791338184879455,-1.7912500354422556,-1.7911619122695064,-1.7910738157077155,-1.7909857461034067,-1.7908977038030565,-1.7908096891531895,-1.7907217025003108,-1.7906337441909224,-1.7905458145715438,-1.7904579139886527,-1.7903700427887772,-1.7902822013184325,-1.7901943899240953,-1.7901066089523021,-1.7900188587495278,-1.7899311396623094,-1.7898434520371396,-1.7897557962205197,-1.7896681725589758,-1.7895805813990102,-1.7894930230871076,-1.7894054979697853,-1.7893180063935366,-1.7892305487048934,-1.7891431252503391,-1.789055736376406,-1.7889683824296019,-1.7888810637564014,-1.7887937807033136,-1.7887065336168946,-1.7886193228435796,-1.7885321487299386,-1.7884450116224428,-1.7883579118676,-1.7882708498119069,-1.788183825801899,-1.7880968401840738,-1.7880098933049497,-1.7879229855110257,-1.7878361171487724,-1.7877492885647235,-1.7876625001054074,-1.7875757521172981,-1.787489044946911,-1.7874023789407794,-1.7873157544453684,-1.7872291718071889,-1.7871426313727734,-1.7870561334886284,-1.7869696785012668,-1.7868832667571732,-1.7867968986028404,-1.7867105743847942,-1.7866242944495339,-1.7865380591436022,-1.7864518688134599,-1.7863657238056323,-1.786279624466657,-1.7861935711429826,-1.786107564181131,-1.7860216039276349,-1.7859356907289716,-1.7858498249316908,-1.7857640068822649,-1.7856782369272208,-1.7855925154130379,-1.7855068426862557,-1.7854212190933505,-1.7853356449808406,-1.785250120695248,-1.7851646465830533,-1.785079222990786,-1.7849938502649652,-1.7849085287520667,-1.7848232587986277,-1.7847380407511246,-1.7846528749560635,-1.7845677617599693,-1.7844827015093485,-1.7843976945506936,-1.7843127412305386,-1.7842278418953916,-1.7841429968917262,-1.7840582065660708,-1.7839734712649298,-1.7838887913347836,-1.7838041671222098,-1.7837195989736752,-1.7836350872356515,-1.7835506322546935,-1.7834662343772876,-1.7833818939499717,-1.783297611319219,-1.7832133868315387,-1.783129220833449,-1.7830451136714456,-1.7829610656920702,-1.782877077241825,-1.7827931486671935,-1.7827092803146565,-1.7826254725307655,-1.7825417256620284,-1.7824580400549328,-1.7823744160560024,-1.7822908540117193,-1.7822073542686612,-1.7821239171732532,-1.7820405430720325,-1.7819572323115063,-1.7818739852381769,-1.781790802198545,-1.7817076835391648,-1.7816246296065668,-1.7815416407471805,-1.7814587173074803,-1.781375859634097,-1.781293068073459,-1.7812103429720905,-1.7811276846764943,-1.781045093533133,-1.7809625698886093,-1.7808801140893764,-1.7807977264819699,-1.780715407412877,-1.7806331572286127,-1.7805509762757135,-1.780468864900624,-1.7803868234499025,-1.7803048522700418,-1.7802229517075245,-1.7801411221089047,-1.7800593638206652,-1.779977677189362,-1.7798960625614355,-1.7798145202833875,-1.7797330507017675,-1.779651654163049,-1.7795703310138613,-1.7794890816005835,-1.7794079062697068,-1.7793268053678104,-1.7792457792413856,-1.779164828236961,-1.7790839527010065,-1.7790031529800499,-1.7789224294206494,-1.7788417823692075,-1.778761212172273,-1.778680719176422,-1.7786003037281346,-1.7785199661738647,-1.778439706860146,-1.7783595261335088,-1.7782794243404214,-1.7781994018274125,-1.7781194589409934,-1.7780395960276922,-1.7779598134340775,-1.777880111506518,-1.7778004905915892,-1.777720951035819,-1.777641493185679,-1.7775621173876939,-1.7774828239883749,-1.7774036133342475,-1.7773244857718211,-1.777245441647615,-1.777166481308074,-1.7770876050997622,-1.777008813369183,-1.7769301064628444,-1.776851484727218,-1.7767729485088233,-1.7766944981542077,-1.7766161340098874,-1.7765378564223462,-1.7764596657380949,-1.7763815623036532,-1.7763035464654742,-1.776225618570182,-1.776147778964186,-1.7760700279940513,-1.7759923660062462,-1.7759147933472823,-1.7758373103636873,-1.7757599174020218,-1.775682614808689,-1.7756054029302901,-1.7755282821132785,-1.7754512527042285,-1.775374315049576,-1.7752974694958574,-1.7752207163896068,-1.7751440560773557,-1.7750674889055316,-1.7749910152206518,-1.7749146353693015,-1.774838349697938,-1.7747621585531026,-1.7746860622812943,-1.7746100612290534,-1.774534155742829,-1.7744583461690904,-1.7743826328544596,-1.7743070161454306,-1.7742314963884875,-1.7741560739301354,-1.7740807491168797,-1.774005522295231,-1.7739303938117126,-1.7738553640128307,-1.7737804332450922,-1.7737056018550117,-1.7736308701891654,-1.7735562385939425,-1.773481707415912,-1.7734072770015916,-1.7733329476974702,-1.7732587198500656,-1.7731845938059156,-1.773110569911506,-1.7730366485133504,-1.7729628299579758,-1.7728891145918961,-1.7728155027616355,-1.7727419948136571,-1.7726685910945057,-1.7725952919506454,-1.7725220977286238,-1.7724490087749563,-1.7723760254361238,-1.7723031480586777,-1.7722303769891359,-1.7721577125739896,-1.772085155159714,-1.7720127050928824,-1.7719403627199783,-1.771868128387501,-1.7717960024419952,-1.7717239852299635,-1.7716520770978632,-1.771580278392276,-1.7715085894597435,-1.7714370106467245,-1.7713655422997006,-1.7712941847652237,-1.7712229383897662,-1.7711518035199014,-1.7710807805019617,-1.7710098696827146,-1.7709390714086175,-1.7708683860261152,-1.7707978138816625,-1.7707273553218865,-1.7706570106932493,-1.7705867803422977,-1.7705166646155401,-1.7704466638593446,-1.770376778420418,-1.770307008645272,-1.7702373548802335,-1.7701678174719562,-1.770098396767013,-1.7700290931117912,-1.7699599068527916,-1.7698908383365612,-1.7698218879096617,-1.7697530559185832,-1.7696843427098976,-1.7696157486299748,-1.769547274025383,-1.7694789192426854,-1.7694106846282298,-1.7693425705287815,-1.7692745772907847,-1.76920670526065,-1.769138954784943,-1.7690713262101734,-1.769003819882851,-1.7689364361494966,-1.7688691753566492,-1.76880203785075,-1.7687350239783943,-1.7686681340860555,-1.768601368520311,-1.7685347276275993,-1.7684682117544024,-1.768401821247274,-1.7683355564527772,-1.7682694177173204,-1.768203405387462,-1.768137519809835,-1.768071761330861,-1.7680061302969432,-1.7679406270548244,-1.7678752519508047,-1.767810005331472,-1.7677448875433384,-1.7676798989331188,-1.7676150398471422,-1.7675503106317763,-1.7674857116336806,-1.7674212431993421,-1.7673569056753173,-1.767292699408229,-1.7672286247443818,-1.7671646820303781,-1.767100871612759,-1.7670371938380192,-1.7669736490526389,-1.7669102376031511,-1.7668469598361267,-1.766783816098036,-1.7667208067353917,-1.7666579320947124,-1.76659519252244,-1.7665325883652132,-1.7664701199694708,-1.766407787681846,-1.766345591848666,-1.7662835328165793,-1.7662216109320452,-1.7661598265416534,-1.766098179991816,-1.7660366716291054,-1.7659753017999895,-1.7659140708510748,-1.765852979128813,-1.7657920269796783,-1.7657312147502866,-1.7656705427870225,-1.7656100114365758,-1.7655496210454156,-1.7654893719599518,-1.7654292645267482,-1.7653692990923444,-1.7653094760032362,-1.7652497956059947,-1.765190258247082,-1.7651308642729986,-1.765071614030131,-1.7650125078652796,-1.7649535461248793,-1.7648947291552632,-1.7648360573031918,-1.7647775309151053,-1.7647191503374446,-1.7646609159168474,-1.7646028279997417,-1.7645448869325389,-1.7644870930618008,-1.7644294467341726,-1.7643719482961937,-1.7643145980942525,-1.7642573964748611,-1.7642003437846303,-1.7641434403700265,-1.7640866865776434,-1.7640300827539077,-1.7639736292453243,-1.7639173263984844,-1.7638611745598087,-1.763805174075979,-1.7637493252932415,-1.7636936285583422,-1.763638084217781,-1.7635826926180393,-1.7635274541055646,-1.7634723690269065,-1.763417437728767,-1.7633626605573465,-1.7633080378593746,-1.763253569981312,-1.7631992572696475,-1.7631451000710339,-1.7630910987317394,-1.7630372535984686,-1.7629835650177133,-1.762930033336041,-1.762876658899903,-1.762823442055855,-1.7627703831503365,-1.762717482529963,-1.7626647405411204,-1.7626121575304032,-1.762559733844327,-1.7625074698294205,-1.7624553658322322,-1.762403422199363,-1.7623516392770644,-1.7623000174120866,-1.7622485569508433,-1.7621972582399947,-1.7621461216257348,-1.7620951474548696,-1.7620443360738554,-1.7619936878291589,-1.7619432030673865,-1.7618928821350797,-1.7618427253786306,-1.7617927331446475,-1.761742905779586,-1.7616932436300154,-1.7616437470424917,-1.761594416363533,-1.761545251939379,-1.761496254116948,-1.7614474232425703,-1.761398759662709,-1.7613502637239487,-1.7613019357729778,-1.7612537761560563,-1.761205785219766,-1.7611579633105894,-1.7611103107752633,-1.761062827960255,-1.7610155152118727,-1.760968372876814,-1.7609214013015584,-1.7608746008326293,-1.760827971816565,-1.76078151459975,-1.7607352295288696,-1.7606891169503687,-1.760643177210786,-1.7605974106566071,-1.76055181763437,-1.7605063984906502,-1.7604611535719141,-1.760416083224761,-1.7603711877956152,-1.760326467631073,-1.7602819230776467,-1.7602375544817548,-1.7601933621900665,-1.7601493465490816,-1.760105507905188,-1.7600618466049767,-1.7600183629949626,-1.7599750574216566,-1.7599319302316614,-1.759888981771418,-1.7598462123874556,-1.7598036224264226,-1.7597612122346713,-1.7597189821587147,-1.7596769325452564,-1.7596350637407814,-1.7595933760916407,-1.7595518699445325,-1.7595105456458318,-1.7594694035421057,-1.7594284439798016,-1.7593876673056572,-1.7593470738660502,-1.7593066640077422,-1.7592664380768759,-1.7592263964200385,-1.7591865393840145,-1.7591468673152906,-1.7591073805601205,-1.7590680794651639,-1.7590289643769932,-1.7589900356420656,-1.7589512936069531,-1.7589127386182066,-1.758874371022333,-1.7588361911658241,-1.7587981993951405,-1.7587603960569549,-1.7587227814976782,-1.7586853560638622,-1.758648120102011,-1.7586110739587104,-1.7585742179804487,-1.7585375525136806,-1.7585010779051564,-1.758464794501088,-1.7584287026480299,-1.7583928026927818,-1.758357094981871,-1.758321579861546,-1.758286257678353,-1.7582511287790776,-1.7582161935100116,-1.7581814522177095,-1.7581469052487804,-1.758112552949671,-1.7580783956669226,-1.7580444337471115,-1.758010667536705,-1.7579770973822928,-1.7579437236303699,-1.7579105466274019,-1.7578775667199764,-1.7578447842545861,-1.7578121995778808,-1.7577798130361137,-1.757747624976039,-1.7577156357441641,-1.7576838456870796,-1.7576522551509908,-1.7576208644827287,-1.7575896740286931,-1.7575586841356015,-1.757527895149678,-1.757497307417606,-1.7574669212859106,-1.7574367371011301,-1.7574067552097294,-1.757376975958294,-1.7573473996933102,-1.7573180267613142,-1.757288857508867,-1.7572598922823977,-1.7572311314285933,-1.757202575293896,-1.757174224224734,-1.7571460785677933,-1.757118138669516,-1.757090404876426,-1.7570628775351511,-1.757035556992181,-1.757008443593962,-1.756981537687031,-1.7569548396179528,-1.7569283497332568,-1.7569020683794876,-1.7568759959031257,-1.7568501326506936,-1.756824478968714,-1.7567990352038136,-1.756773801702383,-1.7567487788111151,-1.7567239668763626,-1.7566993662448236,-1.7566749772630579,-1.7566508002771974,-1.7566268356340866,-1.7566030836802513,-1.7565795447624164,-1.756556219226626,-1.756533107419708,-1.7565102096881442,-1.7564875263784625,-1.7564650578371,-1.7564428044108613,-1.7564207664461748,-1.756398944289241,-1.7563773382869696,-1.7563559487856573,-1.756334776132058,-1.7563138206724784,-1.7562930827535035,-1.756272562721613,-1.756252260923711,-1.7562321777059822,-1.7562123134149106,-1.7561926683971203,-1.756173242999088,-1.756154037567613,-1.7561350524490154,-1.7561162879897165,-1.7560977445363841,-1.7560794224356946,-1.7560613220337662,-1.7560434436774082,-1.7560257877132512,-1.7560083544875953,-1.755991144347104,-1.7559741576382497,-1.7559573947077256,-1.7559408559017848,-1.7559245415670768,-1.7559084520500412,-1.7558925876974825,-1.7558769488557302,-1.7558615358715186,-1.755846349091104,-1.7558313888610426,-1.7558166555280366,-1.7558021494383587,-1.7557878709388959,-1.7557738203759832,-1.7557599980961731,-1.7557464044459619,-1.7557330397719006,-1.7557199044206762,-1.7557069987385265,-1.7556943230720625,-1.7556818777679157,-1.7556696631727755,-1.7556576796329808,-1.755645927494995,-1.7556344071052936,-1.7556231188107665,-1.7556120629576561,-1.755601239892484,-1.7555906499619574,-1.7555802935124611,-1.7555701708907647,-1.755560282442914,-1.7555506285158287,-1.755541209455917,-1.7555320256100067,-1.755523077324185,-1.7555143649452796,-1.7555058888195747,-1.7554976492939809,-1.7554896467146932,-1.7554818814283113,-1.7554743537815383,-1.755467064120841,-1.7554600127927,-1.755453200143434,-1.7554466265199418,-1.7554402922685801,-1.7554341977358545,-1.7554283432684321,-1.7554227292127926,-1.7554173559154438,-1.755412223722964,-1.7554073329818114,-1.7554026840385384,-1.7553982772397334,-1.755394112931878,-1.7553901914616792,-1.7553865131753206,-1.7553830784195683,-1.7553798875410394,-1.7553769408861868,-1.7553742388013567,-1.7553717816333156,-1.7553695697286846,-1.7553676034336338,-1.7553658830949925,-1.7553644090593337,-1.7553631816730029,-1.7553622012824759,-1.7553614682345398,-1.755360982875671,-1.7553607455522675,-1.7553607566110299,-1.7553610163983215,-1.7553615252609491,-1.755362283545237,-1.75536329159761,-1.7553645497647326,-1.7553660583932644,-1.7553678178298573,-1.7553698284204615,-1.7553720905120542,-1.7553746044513694,-1.7553773705844604,-1.7553803892579674,-1.7553836608186881,-1.7553871856132146,-1.755390963987841,-1.755394996289106,-1.7553992828635634,-1.7554038240576042,-1.7554086202180044,-1.7554136716914992,-1.7554189788241423,-1.7554245419628662,-1.7554303614538118,-1.7554364376439267,-1.75544277087939,-1.755449361507048,-1.7554562098734148,-1.7554633163249802,-1.7554706812081766,-1.7554783048694882,-1.7554861876555294,-1.7554943299130281,-1.7555027319884084,-1.755511394228138,-1.7555203169787863,-1.755529500586781,-1.7555389453987913,-1.755548651761486,-1.755558620021145,-1.7555688505244664,-1.7555793436179943,-1.7555900996482894,-1.7556011189617582,-1.7556124019050172,-1.7556239488246066,-1.7556357600670773,-1.7556478359788108,-1.755660176906557,-1.755672783197178,-1.755685655197031,-1.755698793252223,-1.7557121977074808,-1.7557258689080832,-1.7557398072072372,-1.7557540129710811,-1.7557684865608734,-1.7557832282661197,-1.7557982382426927,-1.7558135167096705,-1.7558290646871333,-1.7558448847295467,-1.7558609791171254,-1.7558773425958885,-1.7558939555141233,-1.7559108046139096,-1.755927964819462,-1.7559456883106421,-1.7559642296564961,-1.7559830797311913,-1.756000216287551,-1.7560143629362095,-1.7560341777891386,-1.7560892826890082,-1.756214457978354,-1.7563710048978842,-1.75636987045753,-1.7561284618610462
-0.017171855911049246,-0.012748622494396702,-0.011531416159879388,-0.01335365529177194,-0.015165641300329824,-0.015878458484960563,-0.018590686073245783,-0.02348980210007498,-0.023867074847662623,-0.01675809028048598,-0.00956426612329058,-0.009554843265659306,-0.015491478601787706,-0.02179072456360753,-0.02357588028093347,-0.02003944457627442,-0.015724153263247095,-0.014299969557703289,-0.014864502321476769,-0.016293656868200314,-0.01782931331219903,-0.01817596210855626,-0.018031409225392078,-0.01790462339946176,-0.016608204586711382,-0.015043842899005714,-0.01524441512445129,-0.017793962255487298,-0.02194424606345812,-0.023546741590514387,-0.017857417615762455,-0.00858680110218384,-0.006209912766883978,-0.014276272737684208,-0.025102541099408467,-0.029735058625812966,-0.024924327283152935,-0.012075322647332949,-0.0009924737639816824,-0.007516061452108792,-0.026454074207781373,-0.03148247653660237,-0.019144876363989607,-0.01040965565008007,-0.01271026129170645,-0.017144213436736958,-0.017880260717521242,-0.01698092625669951,-0.01705785779399602,-0.01748631527794234,-0.017951698558335887,-0.018650724006018544,-0.018147482262039515,-0.016199150769425297,-0.015416078285407076,-0.016267306919896134,-0.016568477706044738,-0.01717994328160293,-0.018988431656264335,-0.019148047198512468,-0.01735498372909703,-0.016271945841670035,-0.015857929945109546,-0.015743124446923024,-0.01702014773381955,-0.018362734904507395,-0.017957012681200563,-0.01701789934503915,-0.016441447072847244,-0.016098916745299556,-0.017517303780051414,-0.02013247946514172,-0.020021711152229293,-0.01661122772961912,-0.013665228975929825,-0.01335405270660716,-0.014249573837160936,-0.015971626590242215,-0.021557080497789476,-0.02893432656781396,-0.02566771584470722,-0.006922859912529568,0.005014376569241953,-0.011524159268168657,-0.03539342707595527,-0.03404337550858907,-0.016021926970304922,-0.006463309419286529,-0.008668656995460105,-0.014956274699568513,-0.020793395579853158,-0.02315530749492728,-0.021039129125586142,-0.01671663097139825,-0.013583177539576365,-0.013618470080615487,-0.016413085440759315,-0.01885318452929981,-0.01833613815778065,-0.016965954871990502,-0.017278011180257888,-0.0179050030757376,-0.018167853063229374,-0.018947811102773,-0.018034215837976816,-0.013718338651101539,-0.010903145460659009,-0.014536377630824673,-0.021239481238731036,-0.02438345924614758,-0.021297693575205858,-0.014391941061959058,-0.010647175197703179,-0.014914386259238521,-0.02151748911366398,-0.021644264796971246,-0.01569469155069035,-0.010191700174260175,-0.010858930315492798,-0.018007386201739407,-0.025518903498894078,-0.02977662025682704,-0.028293426928659722,-0.012916472294692291,0.00981142757350133,0.008531644973581633,-0.02478814294200931,-0.04894409072334307,-0.03593940056819689,-0.010437890958578593,-0.0015629236821601842,-0.007848896125467497,-0.016591830202948445,-0.021265075101873497,-0.0211661690468433,-0.01888218488547535,-0.01738159815168726,-0.017464908403995453,-0.01754864050862446,-0.01595532308285503,-0.013428095802696481,-0.012909398535505424,-0.01664401487353193,-0.022331308741111,-0.024706953659333966,-0.02200693707199733,-0.016031823145562143,-0.009000976915236596,-0.005917757900053612,-0.012112613643462142,-0.02328453040336988,-0.028517303401488083,-0.025234841270024025,-0.019126565045159062,-0.013602723996912574,-0.010003359765951016,-0.010182447075780723,-0.013150178652668702,-0.015439417717926712,-0.01706814220902199,-0.020915846410388315,-0.026582349736333086,-0.03064372209353509,-0.02768915442324295,-0.012087267522154548,0.010119650247470573,0.014005636967628148,-0.015812331885029556,-0.04956049544056817,-0.04783732650873922,-0.02092426312385312,-0.004358887031325234,-0.005529369116793768,-0.008754904242705726,-0.008008254468532061,-0.012844106550273345,-0.024516707375307475,-0.0298226134508601,-0.02507348475343343,-0.019149981338351395,-0.01557242219234249,-0.011705633490405229,-0.007910543572756217,-0.008712313061323347,-0.016337758226399983,-0.025417883567146717,-0.028352022010035786,-0.02339372012229174,-0.01460117417508654,-0.0087685117564821,-0.010076009379668825,-0.015553770141527277,-0.01997349386854701,-0.021111068187197504,-0.0200605036689502,-0.019291195130403355,-0.017939833485597103,-0.015052820044563025,-0.01442542660326563,-0.015602471655494488,-0.014002414938896765,-0.013356393207236153,-0.018736466714482515,-0.02491608092045726,-0.025392418183300527,-0.020822233254949057,-0.011807889344948426,-0.0009512367557996592,-0.003967296360522775,-0.0255260930076101,-0.03804618554836173,-0.026032683600045597,-0.010959715740422564,-0.008344003344373423,-0.011330452493924042,-0.014467437850222399,-0.018339379287200912,-0.021451999950523493,-0.021408418598431487,-0.01850977063440392,-0.015121851676820518,-0.013892197383562321,-0.01630206415416147,-0.019544459183274267,-0.019081167966222216,-0.016235500810965846,-0.014906928499753965,-0.015039550156142638,-0.016335599708975954,-0.019183902542600394,-0.02114276714543806,-0.02029591786375659,-0.017147881264554042,-0.012746921347737292,-0.010891815639205115,-0.01484373894222588,-0.02057105101979679,-0.022473873041086816,-0.02064541364647025,-0.017361808310442983,-0.014675325753604857,-0.01502554563977257,-0.016773287163483325,-0.014954505214481856,-0.011462632265879456,-0.014247115536490901,-0.024114370409828206,-0.03220151565410079,-0.02869870570167001,-0.010155858613186974,0.010226988547920842,0.00456001475450281,-0.029294074206058583,-0.0491326111086365,-0.03018037204215837,-0.0044143064856544696,-0.003646339933333454,-0.016031832201587628,-0.018986063425177554,-0.013424805268435347,-0.014152919774583966,-0.024386600369009484,-0.030218785588856413,-0.021083411284965818,-0.005748539630359701,-0.0009368003866244735,-0.011637399157670793,-0.026658063917458404,-0.030647119622235746,-0.02239948433658904,-0.014644121002159892,-0.012234315973804616,-0.009070742465214048,-0.007379826949906231,-0.01572902427524944,-0.029282685921059596,-0.03226801820397059,-0.02004499357616829,-0.007707824291715965,-0.01012830665217805,-0.01897206026171034,-0.017110125061064678,-0.010104186463012393,-0.014359998866765467,-0.024845223245998565,-0.026543529564809338,-0.018639345764991887,-0.009600667261070664,-0.008223366585786845,-0.018886692851075075,-0.03391573986159546,-0.0326584482780362,-0.004266774457104675,0.02075734597605526,0.002661791933772851,-0.03956611601182615,-0.05464921607889378,-0.03561901161646688,-0.012180585448201147,-0.00028097411351069544,0.003586383551611449,0.0019650697618161968,-0.00927874073966272,-0.03056781762228275,-0.04888372491913709,-0.04530900785178034,-0.018415079685099638,0.009459468568733642,0.01507310832526634,-0.00357284215012579,-0.026981282771489874,-0.036319081778168595,-0.03189647807791709,-0.022942276316719468,-0.014387924605378787,-0.009624784586889465,-0.009916643192116686,-0.011883686276743828,-0.01382265940547803,-0.01761084615738425,-0.02235007323738141,-0.024017449634446963,-0.021142803333643555,-0.016410060842104817,-0.013703514385858392,-0.014726349438977934,-0.01752033905908485,-0.018008755521426185,-0.014166649330072502,-0.010002200379439379,-0.012564671652306899,-0.021907736612794684,-0.03015477295307864,-0.03150814244101359,-0.023037603658900785,-0.0033472531346324047,0.012669727651851356,-0.00016014832758292144,-0.032264413365727086,-0.04404441247509412,-0.02992832044733343,-0.015814784475075352,-0.0096845344625865,-0.006765363700041035,-0.008373547856456264,-0.014404989519051652,-0.020241144067308318,-0.022920901058447008,-0.0232198092647932,-0.02190663106277721,-0.018129597852493032,-0.012510894938285015,-0.008810099742546491,-0.011077179769109166,-0.017955018580326394,-0.023563196610028585,-0.024584470885679582,-0.02080665388316194,-0.014114746269054944,-0.009852084112074097,-0.012084190916195413,-0.018608507147761466,-0.023025481423002942,-0.020876853400019484,-0.01517662676307979,-0.01286790953629369,-0.015524275637814819,-0.019781339960727867,-0.02243436856651757,-0.019867968474142423,-0.011762187624008026,-0.006390404559566654,-0.011392945196529496,-0.023482684313306173,-0.03356172632545472,-0.03274421913844601,-0.01504500476851883,0.009795525817800077,0.011865599460765127,-0.01979657837242281,-0.04831100169955998,-0.042196325090733684,-0.01875614233657704,-0.003658180438516688,-0.0004150548422383099,-0.005078186282569997,-0.014621716522265266,-0.024701068199472508,-0.030397181939459898,-0.029260199068787827,-0.021439532256450705,-0.009421144838972096,-0.0011919015505797948,-0.004448248372542972,-0.016457436164445463,-0.027776252211545248,-0.03111730295742234,-0.024893884131107706,-0.015159509969426672,-0.01014271447690911,-0.010108420445497809,-0.01131810139203357,-0.014589659679957217,-0.0202575594147413,-0.02432600959444307,-0.023097101669001176,-0.017677334377695968,-0.014144853048835877,-0.015124736999669836,-0.0160725996236303,-0.014201838940381161,-0.012780701856901566,-0.014912661398026467,-0.01910131149873188,-0.023423374083119092,-0.027658672382225465,-0.02687521450022376,-0.012976161476275725,0.005598327955957043,0.0022702289378197637,-0.024550671469610985,-0.04020016340634381,-0.029627808642434115,-0.01340778505242585,-0.007082122015792796,-0.009316641199513183,-0.014648914972995884,-0.019016956584911888,-0.020994923875095085,-0.020341493289288387,-0.018555423055662032,-0.017826031506561077,-0.01767720402212949,-0.01630276002752426,-0.01272659501567993,-0.0098579878408673,-0.013666233160636896,-0.022999083211926993,-0.028611693723873864,-0.02567592084799417,-0.01731955092781497,-0.008292559431063306,-0.003893615316393249,-0.0091864737110334,-0.02112994512758126,-0.028283273768040115,-0.024994125299775745,-0.017500945837851854,-0.013350502015343409,-0.014336907665405563,-0.018223788461687342,-0.02044644592121259,-0.01681364161211704,-0.00829632324042711,-0.003196943888944242,-0.010523254303796276,-0.028818819949238322,-0.04545750056850257,-0.04372254176934983,-0.013910128734889761,0.023841439163602422,0.025554730083030355,-0.01499091360563437,-0.0500224304115601,-0.049974405076291556,-0.031091234665841672,-0.011390820057640503,0.0020422692523198475,0.002829451758476869,-0.007530403979569063,-0.019341163387501817,-0.02614290192429625,-0.029024220339147963,-0.028753130020743773,-0.021983974095363727,-0.010354287961566098,-0.003297979898570122,-0.007124716747053304,-0.017284236700525635,-0.024589237392978115,-0.024569380725046528,-0.019576633571341675,-0.015510374805234244,-0.01476152334381074,-0.015425366784990577,-0.017037128829287967,-0.0188741724394829,-0.01812217747415599,-0.015095366516501828,-0.012905692099848773,-0.012980223117088636,-0.016910575301709523,-0.025137908355738415,-0.03034189552511559,-0.023172910346371797,-0.00659221585281763,0.0035808206905501394,-0.00432567957388932,-0.023668168099102133,-0.03842598312222031,-0.03929010175188889,-0.022565316077456116,0.005158643611410286,0.015032208486932423,-0.011220766924977591,-0.04161272979014887,-0.038887844806860083,-0.016747429537115874,-0.005065376805369238,-0.0072806952828768125,-0.01470753706896467,-0.021411524675069193,-0.022929705512818793,-0.018869909226019693,-0.01479594675450421,-0.015771770633553797,-0.01929847888523349,-0.018952301107412108,-0.014184957364181303,-0.011663461534735894,-0.014761249871981845,-0.019706665674433667,-0.022693929296846275,-0.021747458688741218,-0.01711528772903244,-0.013608286630446238,-0.01445904482354175,-0.015568602758428115,-0.014180435670084823,-0.01537965515899858,-0.02059817319027364,-0.022417751845837084,-0.01858741178287028,-0.015779876832954447,-0.017344050730537512,-0.019580069691905705,-0.017854292419318206,-0.012016142704339962,-0.00788514064774935,-0.010614546162792678,-0.01862785281593749,-0.02857556767663205,-0.03599773981003636,-0.030457150746450758,-0.006830359735100299,0.015585825290155416,0.006203102962454637,-0.02852614881734024,-0.045548916391842706,-0.03171679925857317,-0.014589326138357442,-0.009585230447153413,-0.01011346913352341,-0.011215108628867158,-0.013224456873391344,-0.01673880492148873,-0.021177483463303115,-0.024033205374729624,-0.022960308237759342,-0.01820212781599123,-0.012615557915007297,-0.009988773697607749,-0.011913145111764133,-0.017225893994404606,-0.02262934548585941,-0.02349241934094905,-0.019588907685561638,-0.015384415719146317,-0.013436216789197774,-0.014313039920769873,-0.016563963733396695,-0.016310116817455575,-0.014568243191787206,-0.016885715980050876,-0.022327707299233453,-0.024605644191157957,-0.02144327769506265,-0.014239976375488388,-0.007192550731683986,-0.00706930768367257,-0.014194299576922385,-0.021478462699721004,-0.02651428057367247,-0.03119569391810801,-0.029574952863185282,-0.011751439826855238,0.01266702052810044,0.010775686845582836,-0.025458185825320792,-0.05211151730482837,-0.03764708279616223,-0.008974435705545857,0.00048084246968419517,-0.007233396484461993,-0.01693135939760986,-0.022037203136444826,-0.022258478687050318,-0.019154828600943283,-0.015959048964777234,-0.01584806429719181,-0.0176528504337724,-0.017136286860067622,-0.014418182651307726,-0.014411933464850766,-0.018729523628152528,-0.022483458970666004,-0.02039474012328341,-0.014067099146550714,-0.011023697197643968,-0.014981991260467002,-0.02042340451811656,-0.02067523927959436,-0.017235483821621024,-0.015373904287446807,-0.015479053883955688,-0.016283820569464917,-0.018887183122313137,-0.021076780040414,-0.01878095732089835,-0.013537286488157066,-0.010126066702610542,-0.012595387547205166,-0.021162760412252273,-0.028411184186770806,-0.025952265270759847,-0.012637977507446285,0.0007927163889243755,-0.005504500377191808,-0.02852170043631634,-0.035902165679792604,-0.02066527128864854,-0.009587721796784094,-0.011262771456354858,-0.013088619789029986,-0.012942833354431253,-0.016690947136528148,-0.022338837496552487,-0.023845023471472902,-0.020533306167671163,-0.01637648715813559,-0.014119882849447917,-0.01295855673873568,-0.012205859833275535,-0.014088330270873868,-0.019088756586891093,-0.022801475837369026,-0.0219606063519489,-0.018606589200262712,-0.016577703807423128,-0.016407085895678457,-0.01456903515552993,-0.010553054899013856,-0.011104092098657939,-0.01925321561333947,-0.025863020722482078,-0.023099499112045722,-0.016668861187531712,-0.015423625647190365,-0.017890299803099564,-0.016470825196325322,-0.011004926223097388,-0.008919594321166376,-0.013392266317844993,-0.021973709396691975,-0.03131554585087673,-0.03321916279408458,-0.017874174799714784,0.004023339843449927,0.003643948794802035,-0.0196288123069518,-0.0335992577545517,-0.02670056437070293,-0.015746073016839827,-0.011063872704034992,-0.011388655946472842,-0.014910274062390837,-0.019009077840306934,-0.020699262819510567,-0.02035372812450814,-0.019106192916959686,-0.01666017394943744,-0.014096935726714431,-0.013490922690463687,-0.015234682513622328,-0.017863408512624322,-0.019710616350172492,-0.020168431196292205,-0.018955441425221202,-0.016586228541501713,-0.015350571317199701,-0.015743222787067003,-0.015340898278615104,-0.014859625245828904,-0.017456274180649555,-0.020574784379746688,-0.01962662317168205,-0.016536905068475778,-0.015284989983661136,-0.016246957054030505,-0.018161283434267726,-0.019533617346040498,-0.018077608635189438,-0.013184759168912966,-0.009202472825121131,-0.011881529818432556,-0.022665485010455344,-0.03470642340518161,-0.03321148002918002,-0.01159601599759125,0.00969990610834778,0.0022045979379095564,-0.02509006152681873,-0.037219004481358266,-0.0275701462729901,-0.014813366613550196,-0.009330644817386125,-0.010612506691649058,-0.014092640925718596,-0.015875675204351573,-0.017642460236106362,-0.022138190846038217,-0.025837186541036186,-0.022524543874982535,-0.012881031969341055,-0.00603896360969718,-0.00968272238110463,-0.019522809296220335,-0.02478619095187903,-0.022237344007542795,-0.017044520192299076,-0.01515056747455817,-0.017011439687570212,-0.016942899063475417,-0.013563181349065643,-0.013278379885632912,-0.017879089176658876,-0.02130904030654869,-0.02016298369758062,-0.0169054208614201,-0.01475420051552445,-0.015517848332373739,-0.01851554834993129,-0.01991905898570983,-0.01737423957576937,-0.012947181659823717,-0.010515216994862246,-0.013746164655046609,-0.022594535057587024,-0.030447029736890785,-0.02865694676901074,-0.013862169060164072,0.002656604734354859,-0.0003177576601552431,-0.02136915026017571,-0.033654710888242304,-0.026924817897711676,-0.014984844472869513,-0.009361136414093977,-0.01176509337123432,-0.017667901359380705,-0.020089089200741088,-0.01703030493285714,-0.014410159353227144,-0.017744686413108186,-0.022798790577696817,-0.02166029391525498,-0.015026156804990962,-0.010520253922958184,-0.012669166116447134,-0.018528659930616413,-0.021952608225726377,-0.020715320995811547,-0.01710418968908413,-0.014271257054312219,-0.013950295791417619,-0.0160269372728708,-0.01887501612320628,-0.019381031103298717,-0.016920631349298047,-0.015520976269635917,-0.01674060932797074,-0.017274557365430678,-0.01665987432157544,-0.018160147466173084,-0.020927781681569224,-0.019996965108365385,-0.014357560100171373,-0.009216682342992725,-0.010385354650348672,-0.01722412038449333,-0.022651296687618307,-0.022329122255028554,-0.01925238461214998,-0.017092882072918328
-0.01666403524295807,-0.02124366475808369,-0.021285983239039873,-0.016660221514323302,-0.01286258464545998,-0.013869820941710275,-0.016762438612194328,-0.0175718096099629,-0.016620028994780628,-0.016007828663248562,-0.01626315430982181,-0.016514171581816395,-0.016678033290718618,-0.017462230367873123,-0.0184253731166488,-0.01854586310852071,-0.017690329496120483,-0.01581598154464949,-0.01316943620110355,-0.011901404237257784,-0.014178975236928197,-0.018771719751969937,-0.022096417981232144,-0.021935444127804744,-0.019041143030491738,-0.015843239748768126,-0.0134705476456895,-0.011198771126385735,-0.009768536672854225,-0.01189017773735348,-0.018677824794407865,-0.028368625743600943,-0.034757276961763756,-0.026157663216828313,-0.0016689134306668765,0.013200573028712134,-0.0029168064806576795,-0.030799703098643647,-0.03914286248661633,-0.026979501478207116,-0.01288227029531326,-0.007620844795399701,-0.009939243140621482,-0.014773962307189362,-0.018458759777726153,-0.019001246126285752,-0.016994080018661532,-0.01593901718498999,-0.017710903604151264,-0.019365183237528498,-0.01772012249482651,-0.014864884274613119,-0.014581597023094106,-0.016027974901835308,-0.01656595909700706,-0.016803657375122752,-0.017951096652869872,-0.01845420980232388,-0.016690364347518548,-0.014258423838555367,-0.0142465221448513,-0.01718737000350526,-0.020067150548648,-0.019714203144625367,-0.016520460379838946,-0.013569097905710783,-0.013026698133302862,-0.014909568913079282,-0.017670619629478326,-0.019144711498476116,-0.01881994690740226,-0.018260058261074852,-0.01821463133695512,-0.017718606520998346,-0.01586065828260019,-0.01257194277647665,-0.009302905583542492,-0.009735250797858022,-0.01738749673115051,-0.03053606149462527,-0.037847994719626174,-0.024590719594849337,0.0033170417686011824,0.014184373978987554,-0.006374217011346158,-0.03253240949197027,-0.038513465450416964,-0.027482411083532825,-0.014326420515627672,-0.007749749641687937,-0.008294799663456979,-0.011926118114316613,-0.015591792021741357,-0.019213174557264318,-0.02223252239998149,-0.022212162326629113,-0.018246915578414742,-0.013132931634745616,-0.011057607540186882,-0.013687677310015262,-0.01861177459133837,-0.02127848925530265,-0.01923998143122732,-0.015206531858561762,-0.01371174358419632,-0.015119631204312308,-0.016578413136146948,-0.01714102897452703,-0.01779615033909455,-0.018371163966124017,-0.017907523646806048,-0.01659388363479668,-0.015571773898443048,-0.01545596189525784,-0.015601949098973103,-0.015540834734215699,-0.015914194856541712,-0.01698275662141545,-0.018127883427500505,-0.018862287554203903,-0.019029542589862808,-0.018519956136429223,-0.017165737413279446,-0.014680505772323773,-0.011287767765189187,-0.008762893538108309,-0.010614697600842793,-0.020162900265961518,-0.0344554247593062,-0.03892679874574467,-0.019286720308854657,0.010782386128814252,0.015118009882834939,-0.013008129032787023,-0.038849283159100294,-0.03852466535693064,-0.023046960663963972,-0.01073311582015376,-0.007296050186228511,-0.009728553862090155,-0.013753097525655442,-0.017054743311944606,-0.019401698162302056,-0.02069312349897831,-0.02018344353113813,-0.0178124766249195,-0.014651004979721525,-0.012722628986371009,-0.014097164177671609,-0.017893345417443616,-0.02009801353816755,-0.018670500591404154,-0.01597873890310445,-0.014803912999109624,-0.015353528638374237,-0.016451350641439336,-0.01696183081840431,-0.01663167727658977,-0.016488240097586503,-0.017492166272738894,-0.018818451781113806,-0.018598122970227282,-0.0164099367860529,-0.014157943088052249,-0.013971975061005778,-0.015401247089649017,-0.016310655639865557,-0.016536377882422,-0.017758519281042544,-0.019815704585652225,-0.020403116170764134,-0.018806922094915232,-0.016516037960760815,-0.014158519786789506,-0.01127961548689399,-0.008755688678326858,-0.009901679814588643,-0.018257448932579523,-0.03208007658360798,-0.03980815955498562,-0.026349871036849326,0.0032265843727020023,0.01653067813488374,-0.003554291479761197,-0.03133229457386409,-0.03839409840033965,-0.027630659809768292,-0.015511126539773108,-0.010107609580102591,-0.009816710888039044,-0.010911718974116023,-0.013228350795355127,-0.017818093316691024,-0.022368535728555582,-0.02299834538168445,-0.01905928489848389,-0.014015491899922447,-0.012131666858042494,-0.01442279345676631,-0.017797914971106662,-0.018890480169764953,-0.017527494853309795,-0.015780440226144266,-0.015315463734655544,-0.016187163095554104,-0.017229414798588992,-0.017427125254653605,-0.017235378191520025,-0.017293719373207225,-0.016839351710655953,-0.015840474491977105,-0.01574836047040467,-0.016880453698101767,-0.017907335818512976,-0.01728033998854077,-0.014995325717957229,-0.013666173608259119,-0.015594179936397817,-0.019148929648995276,-0.02075148001307224,-0.019308302394815624,-0.01657765048543414,-0.0143982180834802,-0.013360249883349735,-0.013380160994504531,-0.013840518097503009,-0.014582108221410385,-0.018151653021499972,-0.026241722622589378,-0.03179664399520259,-0.022066093285363318,0.001109357575305182,0.011337171758388893,-0.008300003169659193,-0.035618227358025244,-0.042215339765310875,-0.02868945558272623,-0.011911658401495787,-0.0035489888506372164,-0.004260999417355294,-0.008643174398951658,-0.013844098839376977,-0.02099089343024821,-0.028570427766540715,-0.030171433179061753,-0.02213413002300801,-0.009512881231381363,-0.002042984686557486,-0.005192787965938173,-0.015588414229148945,-0.024903762952818195,-0.02692348954452113,-0.02201677021074419,-0.015796695393524008,-0.012915882528508778,-0.013197596314927076,-0.014126965941796773,-0.014989313869116212,-0.016451771980893228,-0.018583808792263665,-0.0206900147994223,-0.020331738802139947,-0.015845320095771533,-0.011382828896121066,-0.012236789789252779,-0.0170344439968673,-0.020708696064244934,-0.020363261077569847,-0.0166011398544302,-0.01346167328598205,-0.014915334145257428,-0.0194613493428034,-0.021013192636744796,-0.01590174405672609,-0.00807696630919582,-0.006584401718052548,-0.01666014038577682,-0.03274364624157828,-0.03880817758347705,-0.021148738335709197,0.007446337657459657,0.012788677253627676,-0.012331318123406064,-0.036246111347081285,-0.03688966695002836,-0.02363706122431456,-0.01218737432087348,-0.008070516894008128,-0.009751655280313208,-0.013311853043743388,-0.015905360422744173,-0.01779808481905007,-0.02011266094319255,-0.021660621458584897,-0.020248848988926055,-0.016155843668502923,-0.012613739994075295,-0.012739208043752727,-0.015899285250498336,-0.018309720064073793,-0.018123969170384606,-0.017181982663688602,-0.016892644731587303,-0.016432402020121275,-0.01553405489778712,-0.015434921949761636,-0.01708371619421972,-0.0195389909484931,-0.01975565804714792,-0.016126066205341835,-0.012556471039761121,-0.013776524889375533,-0.017464238650938428,-0.018234127612237014,-0.01639250806353826,-0.015769394632505138,-0.01719514836868384,-0.01918462424393269,-0.020437493525210043,-0.019373763700024253,-0.015652479459224926,-0.01130882622527116,-0.00849039543289383,-0.009335543792183062,-0.016205035977151627,-0.027899882587820814,-0.036777580584743064,-0.030822509788095427,-0.006676670340564857,0.014120449073350578,0.005046514582710599,-0.024188975115525826,-0.0401680926957757,-0.03262687234371981,-0.017550619586543525,-0.009006721672762322,-0.008363452561984891,-0.011439294589441639,-0.015106211720879616,-0.018174000575867596,-0.020306984672612355,-0.02087051650314991,-0.019094156504333222,-0.015613775708859155,-0.012881103274092282,-0.013421848677055434,-0.01670081730415627,-0.019215681169306657,-0.019160479269575207,-0.017819084516137,-0.016338971053048906,-0.014812111529913059,-0.013853369908133788,-0.014616073974119029,-0.0172454164446295,-0.019962466533491013,-0.02016003591579646,-0.017486420694176184,-0.015027632651366866,-0.015023174777664346,-0.015735396808461255,-0.015418319955387654,-0.015493453507929428,-0.017119330617381082,-0.01850136089295417,-0.018029923109409027,-0.016866544440286062,-0.016791145518017463,-0.017968959480587375,-0.018803359506288503,-0.01701529647588519,-0.01239965069822559,-0.008373020937342757,-0.009610488222328973,-0.018410881918406348,-0.03170804899455927,-0.037925620336553015,-0.023166407867575838,0.005117859069809497,0.014249793295591097,-0.008846957574583224,-0.03488587078122445,-0.0375502088132263,-0.02458923744014061,-0.013228755454616492,-0.00854821142676071,-0.008447283932233214,-0.011444571106969304,-0.016741932989694785,-0.0216786677045883,-0.02287339725268235,-0.019972401570741212,-0.015764824716397452,-0.01307818290050972,-0.013238426339955995,-0.015545747143197123,-0.01793298175983466,-0.019170458855592966,-0.018885298990425882,-0.016956444483951356,-0.014846788547655391,-0.014723536350687733,-0.016175231274859543,-0.016890098062803435,-0.016523434399949147,-0.01663611250782556,-0.01765564207214329,-0.01840286260046882,-0.01801124504123982,-0.0169320317397298,-0.015936405844868003,-0.015075530751653684,-0.014200354874541375,-0.014020686564755908,-0.015628146426698686,-0.018752320839965343,-0.02145338738444258,-0.021726986905794228,-0.01915390721669572,-0.01521397513496933,-0.011841666313037125,-0.009581012081014544,-0.008535127899198483,-0.011583139131765799,-0.022654375841896373,-0.03752216927934526,-0.03889554247929116,-0.014597198575174828,0.013911925446239787,0.010820654847420164,-0.01907864634738161,-0.03853247178648988,-0.03363840081145093,-0.01961592791331339,-0.01066134699756808,-0.008985412454596158,-0.010823036891620171,-0.01373501066884265,-0.01757925062257582,-0.021126117261752134,-0.022013738904372006,-0.01927293570161339,-0.014797658073870379,-0.012234011533186545,-0.01346396381889505,-0.016916574971471872,-0.019442818350676364,-0.019266109966520506,-0.017369320559135003,-0.015778853463857653,-0.01527379150613716,-0.015367601280211538,-0.01567466270997636,-0.016558065648600406,-0.01784071588205118,-0.018359220421269168,-0.017907151234859316,-0.0172383192531711,-0.01652091643594532,-0.01564904112163948,-0.014804564497213102,-0.014635875532656915,-0.015849822376952795,-0.017745847489466823,-0.01862503900718203,-0.01820363002753923,-0.018010789033142443,-0.018646520200355905,-0.01801659081370033,-0.01447444623029887,-0.010271764107059426,-0.009296435929573977,-0.013304147798449538,-0.021503965845880393,-0.03032053359891053,-0.031002703461148164,-0.015946933937765823,0.0030184411653363507,0.0019547079982210735,-0.018130708332118887,-0.032539129286397114,-0.030471650570591542,-0.02074969737810406,-0.012488748544337276,-0.008524590502000424,-0.008755879206402032,-0.012453320274520695,-0.018125496679870134,-0.022743789156331337,-0.023040321204350844,-0.01899843333929977,-0.014277498182666932,-0.012180521217148313,-0.01333931465870111,-0.016306455576258528,-0.01859187544735985,-0.018895984671947152,-0.018096479847603465,-0.016998246722639943,-0.015741690534795426,-0.015132459517532839,-0.015614018981545642,-0.01651017983537612,-0.017292764313181313,-0.01781339153629047,-0.017790405664678807,-0.017246316778897826,-0.016655137023723225,-0.016063143444641992,-0.015312441935661515,-0.015064329981731748,-0.01591252669990724,-0.0170399541315645,-0.01755376575733885,-0.018161390765975408,-0.019367492500633424,-0.019552667150445478,-0.016996304820071965,-0.012622731976918024,-0.00953373492190338,-0.010258597534421899,-0.015541141612623377,-0.02482739796605009,-0.03321659822072104,-0.028416219277470397,-0.006568740056570818,0.008825273929439307,-0.004121506700552101,-0.028191565114652893,-0.03543406371350459,-0.025673069062054354,-0.01404506465866086,-0.009031934274326954,-0.010241898299350956,-0.013542351103702312,-0.016111677310426488,-0.01811462857260232,-0.020021156337535394,-0.020780332760587224,-0.019235146629828274,-0.015755645108612295,-0.012581418612949731,-0.012481844912725661,-0.015731837445752565,-0.019178825589499827,-0.01985035254702805,-0.018029821114044976,-0.01588208602555016,-0.01512359966838195,-0.015957201659579336,-0.01698505473408917,-0.017107944145830875,-0.01691416503747948,-0.0169501929326335,-0.016667494550153858,-0.0159845024584395,-0.015621737813190211,-0.015905898895800158,-0.016727309900556292,-0.017865858032473286,-0.018985423246681146,-0.01962411532530893,-0.018785900593895857,-0.015538845169217882,-0.010761404289259313,-0.007665146036572416,-0.01023595009154367,-0.020107402751033024,-0.03313895316643754,-0.03751382628662472,-0.021373554290990564,0.005594408508764082,0.012222550525984179,-0.01056942573007302,-0.03363735854968231,-0.03470163199936378,-0.02277397406542961,-0.01341836468566186,-0.010329228207037956,-0.010618915848524105,-0.012605005672478325,-0.016036398357698073,-0.019723955877544375,-0.021645592119533617,-0.020501826311520845,-0.01701982328013061,-0.013957641726203647,-0.013603767724270376,-0.015370076033981658,-0.017288778895261918,-0.01825990186109039,-0.01783707376614299,-0.016318035815810154,-0.015164833850622212,-0.015645836707045228,-0.017273747236997358,-0.018449076323613953,-0.01841548588057716,-0.017414211546993703,-0.015828326385354252,-0.014550745498840403,-0.014562734995095538,-0.015589185356764663,-0.01661901894894202,-0.017510912921075827,-0.01876014742638804,-0.019799898806538638,-0.01949986347337135,-0.01787232715959931,-0.0151548320048693,-0.011315101875428075,-0.008278672566960663,-0.00999864369168944,-0.01892007245695347,-0.03209507100490534,-0.03789490046035958,-0.022799326058519344,0.004970770710832413,0.01338762808698563,-0.00904950963202232,-0.03375599503179304,-0.036255995211348424,-0.024197458948613474,-0.013848015009702057,-0.009859483426999327,-0.00998211684081109,-0.012507865650788642,-0.01613354795169024,-0.019063606658653316,-0.020519300991894095,-0.02040371140523181,-0.018051464396362085,-0.014235025292697734,-0.012585487522787838,-0.01518825479434344,-0.01885844224593144,-0.01956085221420066,-0.017654878639819523,-0.015659727756975904,-0.014655399168442418,-0.014873910927934303,-0.01624174195578486,-0.017967849436931728,-0.019013395953333345,-0.0186213287757686,-0.017101887827984382,-0.015617896219766843,-0.01478662422516952,-0.014614606966659177,-0.015148029900723788,-0.016412747572868265,-0.01798713945978828,-0.019017344454981523,-0.019143618342471597,-0.01884372384607367,-0.018165387095920072,-0.01598718431507721,-0.011810346217531954,-0.00810967780865016,-0.009272036369465638,-0.01808216649308341,-0.03209080768438219,-0.03909930830308616,-0.023920758184436765,0.00535146834377025,0.014849924376258735,-0.00791540853868826,-0.033943428021034505,-0.037904373501673916,-0.025892236507762095,-0.013811568279308606,-0.008686025953187734,-0.009436972790152317,-0.012372924427729963,-0.015596780911033751,-0.01889615735518637,-0.02114070682074369,-0.020912336753257356,-0.018249301141163854,-0.014561955193121565,-0.01261941636367656,-0.014468300533292682,-0.017958379545360663,-0.019168882192039334,-0.01774239244759148,-0.016306986644593322,-0.016136229659063552,-0.016039416836040973,-0.01536083154018307,-0.015549659391507587,-0.017295262825219197,-0.018784631808869433,-0.01840640669598887,-0.01710256022466709,-0.01658232484490292,-0.016472728113731752,-0.01531098494663328,-0.013544489458197398,-0.013535700253368409,-0.016496962657222683,-0.020440703994990296,-0.022354829817804886,-0.021244004710253638,-0.01779363497697164,-0.012996269341690844,-0.008442447004871949,-0.0068411012728158745,-0.01100645277954202,-0.02225785863756047,-0.03659193011880171,-0.03943371672337084,-0.017270918957024303,0.01315836725575225,0.014440271772571235,-0.015788584848793356,-0.040210108232963816,-0.0381358160530095,-0.02242658718823815,-0.009908663948845447,-0.00589166857017287,-0.00853740230320639,-0.014039777091654406,-0.018940141866759123,-0.021402217396140333,-0.021446290501257022,-0.019679876262884637,-0.01641824861817615,-0.01293643696773658,-0.012007598375617712,-0.014863693383651037,-0.018734515824893064,-0.01998665984332191,-0.018539165130521756,-0.016741579657376944,-0.015749288494062496,-0.015323844452016799,-0.015353876045605758,-0.015927770264941375,-0.01685835231788065,-0.017815035853559383,-0.018462915471226436,-0.01822739702816562,-0.016888325402838356,-0.015428582981913797,-0.014872728651899267,-0.015022383988593882,-0.015435237054263426,-0.016282446152440844,-0.017733078694641365,-0.01941631256069242,-0.020493062559992017,-0.019939290895770206,-0.017022303878815565,-0.012252360799912508,-0.008021535242751916,-0.007898409983918294,-0.015028581405897648,-0.02867320649570375,-0.03911269778954814,-0.030440002273951876,-0.0020134583374049452,0.016719461186962957,0.0009139898262602274,-0.029793567734784393,-0.040962786076699835,-0.029868603614183985,-0.015173057847986976,-0.007926927021068323,-0.007988923856572816,-0.011757403564684235,-0.015858618218853895,-0.01892908256178809,-0.021308120117023023,-0.021959873614126893,-0.019107208862039676,-0.014132511556183905,-0.011308032788609994,-0.013293543283048154,-0.01777958584427597,-0.02005504937518038,-0.018931804734450497,-0.016957611472910132,-0.015763466063859494,-0.015169373686384166,-0.015315293225307707,-0.016316201202055035,-0.017271076557461768,-0.017684483927101077,-0.018121235398831176,-0.018446141529722418,-0.017483576046370766,-0.015522533758116217,-0.014942996225565578,-0.01669307291330179
-0.022088792979233857,-0.019803751128574174,-0.0182702212087457,-0.020445882014492437,-0.026555183053802705,-0.03104946689866718,-0.02926622422276739,-0.02324284734034151,-0.01757050144438909,-0.014578792456372166,-0.01547899849779346,-0.019943226985864607,-0.024841760634612572,-0.027681938310067936,-0.02760172809098012,-0.023312495594392375,-0.016214527652095603,-0.012814265935350674,-0.01846892436626462,-0.030979160943181656,-0.04113949429976202,-0.03631417310938541,-0.011764355799405933,0.012293643303225747,0.004070892335525267,-0.033258833324523056,-0.057701502275003785,-0.045538349956063304,-0.017192766707950502,-0.0012655330073926274,-0.005045332610153013,-0.019548824274501667,-0.032163328908776906,-0.034881062992748825,-0.02863013563510064,-0.01979053505251343,-0.013342181136315126,-0.011042785714156834,-0.013267316643235324,-0.019982979413121757,-0.030674583353840393,-0.04220520463285173,-0.04506673210720283,-0.0280030477359876,0.0034437671295800484,0.01984062183147134,-0.0006306822564720593,-0.040178212438737294,-0.06182497637058762,-0.0509757464567661,-0.022795158482905732,-0.0014437734618271345,0.0005673883229293918,-0.011070395282932273,-0.023647581507083876,-0.031023115365536657,-0.03295455426211004,-0.029107757606939216,-0.02126840810153066,-0.015566521536053975,-0.015734999107014945,-0.019054461757295728,-0.022343572403983485,-0.026132084942092577,-0.030460968589701373,-0.03032618779977109,-0.020101984353271006,-0.006495836986624493,-0.007202304868323577,-0.024210075718293183,-0.03681876317371099,-0.03296268425879714,-0.022743427264015955,-0.0177765087186478,-0.018165100186044322,-0.018953433194790776,-0.018745460151536178,-0.019530163757340308,-0.022042711206874805,-0.025496187699680758,-0.02799183449048949,-0.026810365586986427,-0.02286404377602762,-0.020062525547072777,-0.018608397264523915,-0.01671502551338711,-0.017171778146351558,-0.02283323960205211,-0.028557699006989925,-0.027681684029614934,-0.02235723180272603,-0.019357829527071366,-0.020647707819068727,-0.022453296447416966,-0.021199134317369604,-0.01883974376637288,-0.0200704527919085,-0.02442779021555159,-0.027124019531030323,-0.026355616439325606,-0.02267171709196735,-0.01693224295769418,-0.014099478638784782,-0.019336205779669623,-0.02809076823885189,-0.030096486418669875,-0.023655693741368423,-0.01738495326576697,-0.01838412945210299,-0.023606943810036942,-0.02343857271555603,-0.016985178397322206,-0.01617892946115017,-0.025178813042705646,-0.032918601234248654,-0.03144685802447623,-0.023241602179506455,-0.014190090260245326,-0.010537901971934056,-0.01546012750827834,-0.02444970537264489,-0.029687483203151822,-0.02788328444669439,-0.02170823624077615,-0.017806039460418373,-0.02102880559401217,-0.027935498986444585,-0.029867899266998975,-0.022427123577658248,-0.011092306347087076,-0.0067298527062411295,-0.014156932511420934,-0.02768836886245396,-0.03817958542753137,-0.040196167002253966,-0.03264449524876398,-0.018258902863341614,-0.004353668820415659,-0.0004938302367984543,-0.010295740181984566,-0.02603665632909988,-0.03684880092847334,-0.03834080028626251,-0.03171099216553161,-0.022034975586038487,-0.016267405260433444,-0.015891257670761386,-0.0160991074351338,-0.014344459164320013,-0.013573378500535097,-0.017640418606933883,-0.027516302323894137,-0.040160197944827385,-0.047324799429357245,-0.037267776565435506,-0.008725308065402462,0.01553869042901847,0.009464201945413395,-0.02138610306298972,-0.047980704210896535,-0.052311865055911407,-0.037309616946415144,-0.016394128206243086,-0.0035404203733794097,-0.005593914628294888,-0.01736206031379163,-0.027052005511338878,-0.028931409987782913,-0.026419315460807696,-0.02444852296507563,-0.023706617257184405,-0.022189406020104857,-0.020046354455982268,-0.019457948674708406,-0.020652693947994467,-0.0218076101663691,-0.02189942761718395,-0.021737481513543745,-0.022575247828648233,-0.02409181975716163,-0.02460096776969191,-0.023345217703091715,-0.0210677970561975,-0.01944383227251808,-0.02023455914181521,-0.02242304021643697,-0.022698530538567917,-0.02098164599660058,-0.02096669410460192,-0.024138266363803226,-0.02745600507223386,-0.02702467793527861,-0.021748641217944627,-0.014573213333448914,-0.011082130501383756,-0.015445036457842719,-0.0265380632707864,-0.03727774418272903,-0.03783938882761012,-0.023442639112575065,-0.005002093007163661,-0.0032772617709300594,-0.01996675090229007,-0.03381354668596881,-0.03357793181052349,-0.027201047746287867,-0.021900381788704654,-0.01793509836761673,-0.01535599687676405,-0.015977287141576205,-0.020188719829559276,-0.025478537723083124,-0.0282959990702018,-0.026728501320316123,-0.02294258684158572,-0.021054539965878086,-0.021208044965628624,-0.020352938310543883,-0.01819065083059552,-0.01727594568857775,-0.01911223049728767,-0.02310779902581632,-0.027612011951466252,-0.03054196257498436,-0.02988862452473557,-0.02477004217814869,-0.01704723341333145,-0.011253044687738788,-0.010744669113754799,-0.015122042660429555,-0.022658069802560785,-0.03172600578239765,-0.03798432357481929,-0.03524693859729988,-0.023198717707792298,-0.010905872207551088,-0.008567355532446225,-0.015405734261804842,-0.02070023713410092,-0.019973496703424694,-0.021126971733071157,-0.030230864380041213,-0.04072868074480944,-0.03856266765682374,-0.01804943910378343,0.00309688004193108,-5.668733085654196e-05,-0.023311520257465718,-0.03882832227792519,-0.03436758229876637,-0.021897461321314454,-0.015299614891608599,-0.01755331391115474,-0.024252422025439556,-0.02829168258798461,-0.024634783442344817,-0.01754281624728302,-0.01641515121197149,-0.022109549347691135,-0.026577036992209375,-0.024684041018618378,-0.019589434762424224,-0.01728044086027821,-0.019374934704764604,-0.02316428834604388,-0.026271753413507036,-0.028152059319859785,-0.02828190959780559,-0.025487685228285352,-0.019319908450189577,-0.01157484914551419,-0.007163554632331084,-0.012542531013119852,-0.02787882524534113,-0.04106688591902709,-0.03952563248246424,-0.02599700163832768,-0.013091267337490263,-0.008369925306455974,-0.011531849933090801,-0.019384425572322134,-0.027557773381264014,-0.030738150512205204,-0.026633541894482127,-0.019641854487519338,-0.017304740862333304,-0.022485697180993476,-0.030370204263369012,-0.031697174132751194,-0.020603198798349556,-0.005871742498739454,-0.005690155434920059,-0.021314391603415826,-0.03463884216722446,-0.035495240458163026,-0.028865473826709443,-0.02145471042660446,-0.016449560196970442,-0.014883337190007177,-0.016619137801338744,-0.02058476784558136,-0.024652505782398436,-0.026562212763519263,-0.025433114019043294,-0.022774118062507058,-0.0210602876002951,-0.021059742545396172,-0.02215638950677644,-0.022993654486407247,-0.021751691995191294,-0.0194470808864153,-0.019552862624567673,-0.022158553478397156,-0.02397061916856509,-0.02400907731965044,-0.0237392227630541,-0.023562844546750672,-0.02322671384411257,-0.022602793614459958,-0.021165598201997267,-0.018821433078819828,-0.016515349511005986,-0.016267666925792134,-0.019955459890887095,-0.0271430664411206,-0.03502392357361889,-0.038509974294742136,-0.03165877611600189,-0.014342724310576253,0.003685490856722295,0.008375768500109652,-0.007698790425723898,-0.03816158769030575,-0.06522550163498737,-0.0665839882463279,-0.03070326078150901,0.019112377776492988,0.03535283719482961,0.001817558630039344,-0.04492828738766214,-0.06223575889908429,-0.04534397400674969,-0.019354539210345228,-0.006607595328714019,-0.009330527155044668,-0.01682626970632075,-0.021857351194267995,-0.026124955474743364,-0.030286093109864555,-0.02772919563880369,-0.016904678920830397,-0.010496803763493417,-0.018075773814834856,-0.030313604109966103,-0.033830036176450404,-0.028256291844518854,-0.020492232881580693,-0.01467478964618456,-0.01270335217458125,-0.015799662376851736,-0.02220614553805492,-0.028184128587980285,-0.030650900430486405,-0.02824204900447523,-0.02281185664746639,-0.017960134862574313,-0.01580402043142902,-0.017006070771794314,-0.020734871269370535,-0.024138195250429713,-0.025281224934908475,-0.025231961647025035,-0.02548777992602107,-0.025355106594617313,-0.022530263501917575,-0.016274916693200317,-0.010887482755347191,-0.013488243046044974,-0.025849983175244007,-0.04042917414176747,-0.043086890787632115,-0.023864620290321974,0.0025365106659981512,0.004513531993130343,-0.020502165276940012,-0.041051693466685885,-0.03964683103737138,-0.027164087565224596,-0.01689846769911256,-0.013253770993496512,-0.01578775703471423,-0.02111924231570454,-0.024814565368696875,-0.0246252269358779,-0.022871296506398638,-0.022984436515378966,-0.023576924784536817,-0.02229581756235869,-0.02127405907731958,-0.021694271587887108,-0.0214468666941653,-0.02068006240693165,-0.021118218784630174,-0.022691300434961585,-0.024126277727804114,-0.02378341112734755,-0.021704329438069245,-0.02047086226862409,-0.021605324693795076,-0.023333272925446034,-0.023025874144186782,-0.020957182236550354,-0.020344281302216417,-0.022223499331433284,-0.023647367032505223,-0.023035212858514127,-0.022180995466767238,-0.022395567578350026,-0.023114898194221422,-0.023080577282443327,-0.02127306292731994,-0.018647610518406403,-0.017549606703833924,-0.0192207422345018,-0.024319373538672907,-0.03195974136210873,-0.034971365947139885,-0.02378832296637621,-0.005251801401910538,-0.0033544462855567315,-0.02240709865515145,-0.03733137397547097,-0.033975524353772754,-0.02345070157087,-0.017910782839337124,-0.01786839660253325,-0.018994528245079655,-0.01987868738796837,-0.02130617293525534,-0.023101398741673558,-0.02447327363511343,-0.024738635449293722,-0.023650970062767056,-0.022126549304474656,-0.021496056516431928,-0.02131856590013154,-0.02014004944898648,-0.01903809198927385,-0.020425720286363375,-0.02392565458112622,-0.027043534285137956,-0.02724745729130247,-0.02346441073764349,-0.018439692891342507,-0.01646881135764057,-0.01822355412545052,-0.020953175808290134,-0.022760592041443768,-0.025138731685354264,-0.02968461299444098,-0.0317343748413558,-0.025027328410728366,-0.013267722405599005,-0.00671333721778378,-0.01027733715736155,-0.02080144916679516,-0.03179616603089576,-0.0385139377189275,-0.03741915410416029,-0.025689892197386544,-0.009587583327292565,-0.004599818849474083,-0.014317160053626413,-0.02243809673669818,-0.020996919718721793,-0.02411956531483877,-0.03721618186679753,-0.0427699641278885,-0.029964637768125236,-0.010360377831371979,-0.00013764802582490882,-0.00442122383343797,-0.016996532157867072,-0.028623766360734815,-0.03560355128357885,-0.038431311597027076,-0.0351916471087273,-0.023715811487748154,-0.008956274914469852,-0.001779551179389275,-0.00847771528728748,-0.02375963400771195,-0.03591559788428851,-0.03717243519198912,-0.029110204004680618,-0.019522748612400487,-0.014451872410307912,-0.015053253931389864,-0.019530525845440665,-0.023828723706597877,-0.02425993043595987,-0.022193832562499675,-0.021736361669883148,-0.02356478726418644,-0.02506578327911807,-0.024101520059009326,-0.021149039907403366,-0.018864063754477453,-0.019032123285592752,-0.021218340360446827,-0.024661215483315915,-0.027563697328409662,-0.02549160960908313,-0.017521601372611252,-0.011624670231350748,-0.016124532824678465,-0.028851806976421295,-0.03838741982300068,-0.03295048127725296,-0.014049897990932939,-0.002799066669055607,-0.013555720517752856,-0.030199403342386844,-0.033293477826317745,-0.02656927466094719,-0.021164034272933757,-0.019522771849247323,-0.01913880788939964,-0.019304753906982032,-0.021206497941431403,-0.02373970040433556,-0.024491771677583263,-0.023767388776007203,-0.022560031292652546,-0.02042504882160262,-0.018843070507486737,-0.02079790262096106,-0.024977480540532053,-0.02640854866768174,-0.023603612090178687,-0.019972461228750196,-0.018798727018109272,-0.020252686677142882,-0.022332332299625616,-0.023334098599873176,-0.023184980926230475,-0.02292689920605763,-0.023337769208638476,-0.02348094047939172,-0.02220858963423525,-0.02040467585580385,-0.019425437957309215,-0.01981013584076627,-0.02188553964608075,-0.025014506658233123,-0.02726356385377068,-0.02674271406126478,-0.022766448594268626,-0.01650295002699623,-0.011172477516361457,-0.012131938737741219,-0.023533121425245322,-0.0400944379697387,-0.045858294588259255,-0.028866052013108313,-0.0012168091971147751,0.006984268809564664,-0.012309191174496435,-0.03347131514511379,-0.03754124764708529,-0.031789019699342023,-0.027356711871221878,-0.024309032902928174,-0.018049487855836686,-0.009924681533114394,-0.007920376162078203,-0.01652829618696474,-0.03036525864964287,-0.03843410418345883,-0.03387054256199326,-0.02179230161002405,-0.013665955133533483,-0.013724055905753598,-0.017861866758377795,-0.02175476052236587,-0.023967962238767605,-0.024833680134279626,-0.024989282294741573,-0.024376069915620517,-0.022809398070858355,-0.021318637790975058,-0.02136848159826149,-0.02229173279723229,-0.021719868260327707,-0.019545647666299543,-0.018867733925441728,-0.021375478061190688,-0.02454150362793582,-0.025723083800865396,-0.025423196800091176,-0.024352401937349416,-0.02228164853598401,-0.020147566959488872,-0.01834112692804672,-0.015963739876831196,-0.015254848064526955,-0.0209386809195573,-0.03317292512626412,-0.042892240303778015,-0.035022575367951746,-0.008481153822837885,0.009371192995188102,-0.004504259202823576,-0.032940114016598604,-0.045509337086585784,-0.037479574882993166,-0.022729251533752454,-0.013131565863238145,-0.012174404108784877,-0.01637482942860273,-0.02113407094795993,-0.024808314469824122,-0.02673130826910371,-0.025931473656189183,-0.023288148502934043,-0.02137329826797514,-0.021046205921220053,-0.021145850803692925,-0.021034042983422905,-0.020959812237183857,-0.021530075254720844,-0.022748390670958903,-0.02316465908840714,-0.022449188944178952,-0.02254601444062572,-0.023746117735918296,-0.023890647769402314,-0.022525418987069,-0.02083676554267377,-0.0189691529838864,-0.018017261312759134,-0.020340812467800454,-0.025082456105804538,-0.0280745400238497,-0.02684335269170344,-0.02293818816359697,-0.019914111296174486,-0.01964638878908917,-0.019752470428973105,-0.017271659727188075,-0.015113184122140771,-0.01946138133681682,-0.03134814915234088,-0.04221671658937769,-0.036895776574721914,-0.01243685395940819,0.006048831755919409,-0.004867734142563328,-0.02953403825070468,-0.03928404901911184,-0.03278781844296105,-0.023917298017477665,-0.01865078426319141,-0.01667182850012063,-0.017259060382598047,-0.019832228149062624,-0.02312420772430951,-0.025217894074200123,-0.025168460908142995,-0.023407207371106437,-0.02153363353880384,-0.021217586965252243,-0.021698683776160077,-0.021542349415614302,-0.021546402568354113,-0.022307598182563004,-0.022491577057023433,-0.021840002930148907,-0.022071687038658395,-0.023345150929549995,-0.023644273442587706,-0.02224326934753736,-0.020961050363033716,-0.02138031583069297,-0.02207044594998165,-0.0213036203950518,-0.02059243599386181,-0.021649982361965147,-0.023739998612462846,-0.02551470926234327,-0.025856047764398118,-0.02417598043395082,-0.020808522407801983,-0.01637790555843262,-0.01264892991790843,-0.013988297364940545,-0.024709037953048612,-0.04129885392759028,-0.04702078457678864,-0.025865526918311926,0.006382108767596482,0.010283121984139686,-0.01920806088468764,-0.04447270014326111,-0.04308952272605214,-0.027815524898505646,-0.016172439181272473,-0.0132680057057384,-0.016087678559018454,-0.02012966542414578,-0.02303233771581746,-0.024370619494470294,-0.024468748288093332,-0.024292241592630305,-0.023921153831292057,-0.022033075449973384,-0.01951648295777516,-0.01951335799222743,-0.022048896220030294,-0.023776838704677502,-0.0234134630837111,-0.02260815599460346,-0.022090933533735986,-0.021537589364582457,-0.021546681558058237,-0.02245611027418306,-0.023198309974797705,-0.022796874333351116,-0.021560512323005418,-0.020427012094088034,-0.02020208117324432,-0.021291163258151058,-0.02363060389799049,-0.026310501042438955,-0.02717643056081873,-0.02463495263416831,-0.01977286408664695,-0.015103889188328933,-0.012692113529048026,-0.014901115324997298,-0.024374012224837028,-0.03899154521591108,-0.04596635302728066,-0.030059040498665764,0.000612258219027037,0.01148879722130818,-0.012099792817963795,-0.04018320104352341,-0.04410932729704056,-0.030964268691612118,-0.01914721446826633,-0.014776773222798738,-0.015338215349996243,-0.01770650938666712,-0.021287577768754944,-0.025329122015607025,-0.02666994423750453,-0.024664915505725873,-0.022366287358454924,-0.021111593523149525,-0.02054653683079522,-0.021265764546262576,-0.02274458190756057,-0.022889650269420667,-0.021623244565471454,-0.02101089190113435,-0.0217320788698859,-0.022730874254482197,-0.023357302323631337,-0.023493805930934607,-0.022984152778377384,-0.02207816700420969,-0.021109948664901675,-0.020026076189113624,-0.01959666256022473,-0.021346872770540162,-0.024784172600871915,-0.02699396397414485,-0.026104594299168456,-0.02300290428434333,-0.01932767436011527,-0.01582530302699306,-0.01370845758153005,-0.01638738203505659,-0.026257339224531447,-0.038692544319178845,-0.04134463879535371,-0.024114105565761622,0.0011459198387362736,0.00404325427566676,-0.020628086375117944,-0.04186775557572885,-0.03948876002075212,-0.022201182201160238
0.04612976339809207,0.042257293564701065,0.0406662422376631,0.04162996191883237,0.04429399642133121,0.047041317072377895,0.04897363730034413,0.049928139121745964,0.04718196546212261,0.04017155791027738,0.03828594553214841,0.04722080159291157,0.054727861338235574,0.05046759289793052,0.04218374708778376,0.04000523553406159,0.04446552064155268,0.050378267575798025,0.05205076671801167,0.04797023202778949,0.042185920044694306,0.040210693909406514,0.04366768862517825,0.0484548481613177,0.04984736668612918,0.0478499733976332,0.045285351171894674,0.04465572152334168,0.046571555153830546,0.04861597186988677,0.04823381734256761,0.04527422065769593,0.04032447234097228,0.03657319853697767,0.04186553423871368,0.05637926262295041,0.0646219795802673,0.05594370601936929,0.03881583032137087,0.02605129368421995,0.026123071740299094,0.04451394752193525,0.06982872135487495,0.07217325893148946,0.04508040375176529,0.0240227267900643,0.03244016003986146,0.05078893195235642,0.05649596675872987,0.05065830355535555,0.043409303272564634,0.0404009601172942,0.0424154832730567,0.0473002063350925,0.05099077889227595,0.05065646541318339,0.04712434698867663,0.043347735871039114,0.042069582225298614,0.04369974424473436,0.046279332549275166,0.04771711871803812,0.047434318998428794,0.0470890256311099,0.047808387556014145,0.04795764185195708,0.046874915267320516,0.0454180063450327,0.04222713285570776,0.037999224576767715,0.04039925099279457,0.05223455859045686,0.06082543980921558,0.05493902270671496,0.0418702479835555,0.035021318331262846,0.03756710196038608,0.04421811836365319,0.049469301125418384,0.05113635993514606,0.05036138915530805,0.049535342890534996,0.04874223057161753,0.046589114563757195,0.04295135359864863,0.037752147779277184,0.03262848914404039,0.03605974461026154,0.05548865740191274,0.07641410138192467,0.06992619816972545,0.03774411240674031,0.015968743753222037,0.02227522230166782,0.04267903555326506,0.0610749700165237,0.06678515805982156,0.05679957477906763,0.042262011329973814,0.03589290892920072,0.038974176636081714,0.044986826304797146,0.04801632951193245,0.04700163211711708,0.0450821194232912,0.04576570815092459,0.04889087079231391,0.05076498973516153,0.0486832917758005,0.04391915634997673,0.0406343096768567,0.042076628203112726,0.04681769856963987,0.04998108112312478,0.04878649849886204,0.04515732102378965,0.043451804866027836,0.04598123062260679,0.0496429923812762,0.04938211488602501,0.04515962983735997,0.04161958767796972,0.0419924347958387,0.04520940427415147,0.0479484793695924,0.04885780245700084,0.04953285441816041,0.04979069377253218,0.04623697440997465,0.03967348967825854,0.03910757423513579,0.04853032845498963,0.054360685864353095,0.04490251275308915,0.03556033931432003,0.04682171749637698,0.06344004384387372,0.05525029983597707,0.032796941316286896,0.02931451118901485,0.044401115881867924,0.055488810791891406,0.054929857307747985,0.04844415089421357,0.04253187755061205,0.04049826742407117,0.04218253029936538,0.046362010075947944,0.05067904643275012,0.051773922393673025,0.0491019694001114,0.04494758760601096,0.040623479625070555,0.037358969304749336,0.04014938806701827,0.050929148495242604,0.05907843675741877,0.05462434466265208,0.04408427830150882,0.038887585379476744,0.040401227129360354,0.043667255262769815,0.045662595419884586,0.04672890686614207,0.04791518944435393,0.04923575704727475,0.05009061413750941,0.049405360307383,0.04610322803694823,0.041626658011347455,0.04022125953338983,0.043373543018045156,0.0470068064600376,0.04787737808756365,0.04753227999996813,0.04823464717702781,0.04979846906647874,0.050021196217644705,0.04723267645683238,0.04238120653131589,0.03706349933409892,0.03437130773075124,0.0429657637296091,0.06319438344487631,0.07008022163459171,0.04712800005201978,0.0240403404105172,0.030477603476412454,0.0484567688137424,0.05229675448483606,0.04848536518679139,0.05111222463583105,0.05398075760375525,0.04701480400920327,0.03785605015781586,0.038312993652184955,0.04597657459153056,0.05086341853689341,0.04902934938156508,0.04517460183423267,0.04513675220651866,0.047784276335099754,0.04821211581232754,0.04614283186429696,0.04421823911792591,0.042894562210659536,0.04261160376845828,0.0449868054967113,0.049250243187586036,0.05238973604369745,0.052033674894770475,0.047331837353847245,0.03987019050849008,0.03461208081680228,0.038652033970093105,0.05176512664449323,0.060061966335318205,0.05395133587674761,0.0426958186876273,0.03858828948219026,0.041340256407825834,0.04442910754253986,0.046384371281163135,0.049024071127776604,0.05080979238034654,0.049550892541505985,0.046472752784326526,0.0434951945386368,0.04021322033375483,0.03889961756862811,0.04757958420010358,0.06134114786764992,0.05684614176238792,0.03452340252207983,0.027028036796230153,0.042489356861745355,0.05590285537245591,0.055848125113702476,0.05081533034756739,0.04625719127267229,0.042037431319158436,0.03972087126733265,0.041502496095999555,0.04629013067391674,0.0508371902001344,0.052643089522676816,0.050754523246058135,0.0457045448570494,0.039037262647630966,0.03452228948117961,0.03925319857619857,0.0538046708235114,0.0636883093323048,0.05688461928129292,0.04176853883592718,0.03341905041922305,0.03533068368449724,0.04217621672370614,0.048564791632426864,0.05167158182629226,0.05226754570450054,0.05291764002779215,0.05279995688561565,0.04835089469937773,0.03891961446457751,0.029040094538797225,0.027812974980665223,0.04222203163978871,0.06394115773235882,0.07348842984112133,0.06292100914214568,0.041113338787078166,0.022606519468003485,0.02123073934742758,0.039909776081284834,0.06154027165743806,0.06434967049849852,0.04993515096630897,0.04210113820302101,0.04957422130229504,0.05047894664346808,0.03498826663894267,0.0281399966486546,0.042627616157692554,0.05782805548951776,0.05867453134284971,0.05095391348846376,0.04342694478709962,0.039724191202619934,0.040688239744283816,0.04507506136111981,0.049078475473181185,0.04909635176929468,0.04604993773995709,0.044658560601147194,0.04706811762658453,0.0489169329336581,0.04591438558023759,0.04194261020853479,0.043040663340280935,0.047705074539955046,0.05022088307224324,0.04816724538369887,0.04394186491424336,0.04262015545876922,0.04639872518119608,0.050903206791630795,0.050290733590694754,0.04360273210566068,0.036332414950818,0.0381533175775342,0.05117553131690393,0.061228173488822056,0.05524999123736252,0.04064083511288272,0.03335151164541294,0.0375260896344327,0.046228905645005536,0.05254827383741739,0.053840279387129195,0.051159620200791456,0.0476879419083854,0.044856064089254556,0.041178269427846706,0.036661069800978566,0.036221859610235795,0.04695186780484521,0.06380347497096531,0.06358789452564395,0.04142175952495881,0.028822370437759266,0.04001399213742073,0.05009973640984787,0.04523082686694631,0.041135870458127013,0.048621415138481665,0.056311641690536596,0.05319904092150558,0.04548051894550375,0.04200687465369398,0.04200555374198511,0.04245540943452179,0.04349550011273955,0.04520743822242465,0.047048446083885385,0.049341035026162335,0.05123571609241302,0.050092483099877655,0.045655430330595735,0.04164944756216533,0.04147807591350089,0.04474152703980129,0.04777664065398127,0.0474660864541622,0.045530246837417326,0.04581820604585055,0.04791985939974702,0.04851823290036294,0.04701097586306136,0.04569854458662168,0.0456623760029694,0.045101022073636456,0.042986741457041344,0.04187168938907203,0.044304512850043415,0.04911040885887062,0.05321341429185503,0.05383448927877602,0.048319475041201515,0.03860985741061477,0.03496557407112119,0.042686605865384766,0.050419665415805295,0.04874878017304544,0.04816771739804414,0.056157261256315094,0.05515683585062914,0.036722707236527985,0.0266365409013823,0.03938365726664611,0.05473185795703316,0.0570985354683371,0.051805890384468846,0.046362504766623305,0.042540190532528804,0.04034271942263282,0.04089535659588463,0.045103729005162456,0.050427034162425756,0.05265134535979102,0.05091861496046629,0.04702659137929667,0.041580122005860226,0.036152365925300176,0.03711947975883786,0.04794410843900258,0.058778586193573255,0.057657365406209554,0.04778959736208979,0.04023149844816789,0.038905531429483275,0.04101177128926339,0.04368201082414183,0.04629948684376045,0.04902350082315217,0.05119846204551384,0.051480989175946935,0.04914887076510437,0.04519148705253133,0.041488486387805265,0.03973479927881232,0.040996488053001115,0.04453856212722365,0.048512912596828245,0.05166333548736522,0.05281479958813219,0.051234689742421895,0.04774395593881017,0.043421219693672894,0.03876494574938465,0.03507865398946889,0.03625727241455993,0.04831362753312998,0.06649387175081659,0.0671830958816416,0.04317278621384983,0.0257606953034355,0.03393940285412559,0.04693647780311786,0.04782715761513455,0.045910813013928096,0.05135798838842543,0.05679496899041115,0.051768908189968245,0.04147900960521515,0.037843405646879505,0.042016736026794045,0.04608410203452067,0.04603491868052803,0.04621882936692575,0.05001792069421884,0.05239584894465513,0.04822976406347943,0.04155603746926719,0.03955866356762898,0.04338100940423462,0.04817834471391786,0.049231225564898666,0.04725414578785338,0.04631218261735947,0.047679918936949874,0.04886327757756346,0.046455070554625943,0.04023225409704034,0.03760276377441815,0.044996691740891805,0.05468424162355151,0.05584250922836423,0.049480116262838644,0.041616532381143906,0.036776634222531954,0.0386796409643559,0.04631726949743292,0.053267497580626155,0.054688625135562496,0.050766560794709724,0.04451399663481971,0.039602199524000715,0.03786692522480406,0.041368354391036234,0.05273710274271552,0.060768066372485934,0.048471794641286134,0.029975223436565605,0.03360554047510166,0.05179229385423171,0.05849024055717532,0.05118729545822352,0.04356517330449465,0.04196473630571457,0.0430683517493714,0.04412245698493712,0.046219788878749904,0.048815439976413535,0.04944223719400595,0.048167234865255544,0.046811963857315515,0.04568714219272524,0.04309326401478765,0.039072396427571626,0.039815231459256424,0.049525377820741734,0.058588888806546516,0.05515857108139861,0.04372608128994763,0.03728240626745204,0.03967645710391182,0.04511339314859567,0.04773553481401545,0.04764667462783113,0.048636297486523594,0.05085675190632845,0.0502581056950085,0.04537430054012884,0.03962429060374767,0.037871022276427725,0.042038436792534474,0.04841511808996766,0.05191164295385133,0.052616852165255794,0.05284361213645764,0.050310694837545876,0.04131061976603503,0.03103024598626908,0.032392186897582886,0.04694312689376695,0.058676237341773144,0.05848562077098462,0.05584236274974683,0.05357524645509612,0.04089724732940478,0.024984542199951602,0.026917953730767056,0.043203672861230155,0.05521233364778421,0.059197238047749,0.05899398731106143,0.05382016306252943,0.04429767021463374,0.03612124875766344,0.03448461820566991,0.03913450498084925,0.04591829389293742,0.05132823440773017,0.05363945037248834,0.05170584080124104,0.04712410029219873,0.04456088422686169,0.044771993369408646,0.04417348888484618,0.0430971423247246,0.04389171049038596,0.04485785585863783,0.045029415552495414,0.046812260859859144,0.05013913962876656,0.051933687599057976,0.05065815499930201,0.04653736028253582,0.0402224512644634,0.03446843767692011,0.03612922653105732,0.049685721135946125,0.06426765336387129,0.061930378062286504,0.04410941788979819,0.030251379560025448,0.03134664911033978,0.042124269621834694,0.05334936354394825,0.05885162511925881,0.05619680490964603,0.04820144546324706,0.04012707851793451,0.034885061739515937,0.035170412280545967,0.04530936260446348,0.05890877001396785,0.05733570197145648,0.04184351049664331,0.03643665315161856,0.045211187024961026,0.05104790329572313,0.04842525336206124,0.044368242116970116,0.04350057800878882,0.044867409066765986,0.04611791561996375,0.046902541914958795,0.04768396715818996,0.04800566869399677,0.04783027736919199,0.04818860344937715,0.04781123463012098,0.04305250404070792,0.036122983019326246,0.03710956404609635,0.049221997862803096,0.05992850405616863,0.057510846070311636,0.04625198724567154,0.03783432201024167,0.03779870597308489,0.04286946873410473,0.04725019695337253,0.049058054046061346,0.04889342215809117,0.04738944435735452,0.04640318693365512,0.04703462210154244,0.04742325402335194,0.045807319313297803,0.04321591375935877,0.04191556838059522,0.042781178719038505,0.045646631379923405,0.05008718420132375,0.05353931158425831,0.05273053207440566,0.047512603537014614,0.04026259314954772,0.034528458881731915,0.03551222110572294,0.04749513272707203,0.06348260978249493,0.06243550595771478,0.04018387087911646,0.026891402240193252,0.03999281505643315,0.05625894712239788,0.053649961645272616,0.040279633840596435,0.03620012047734797,0.046584643048963904,0.05682852614672465,0.05507414610292938,0.04680156413205208,0.04135014625094323,0.04016687283790582,0.041529160646678644,0.04484435334939488,0.047861345006710285,0.04794886732796193,0.04707229222972356,0.048090198639652956,0.04938770762776316,0.04857859724298251,0.04578603723478288,0.04242425020425779,0.04103345649631342,0.04322383670955651,0.04661615715097894,0.04791598030587196,0.04749139180004324,0.04795528118926413,0.05013899382438208,0.05109860705147792,0.04741802911152658,0.04107173167531375,0.03730935901195158,0.03859710189005163,0.044271714588308184,0.05132670094256501,0.055250500121195444,0.05399740476289766,0.04975781165717798,0.045490780736365075,0.04106017085737568,0.03503851896976967,0.031762750839465184,0.04099494572168974,0.06059230907851087,0.0678685090990809,0.051348428091083614,0.0340975159267585,0.03640733371335442,0.04774255582173575,0.05251841513404139,0.04773145104732062,0.03838641053851892,0.03597310174955669,0.04621436020485322,0.057271322515309996,0.0569976676727211,0.04914498072960377,0.04172754916006918,0.03765343820090301,0.03885127251377983,0.04438204395684737,0.04855559687186496,0.04935122190079278,0.05016092163628873,0.05100739094944571,0.048525871124041,0.043736686356952936,0.04110938844021351,0.04202282670460296,0.04437349560716932,0.04592064026093137,0.046743425922024684,0.04830386770588923,0.050065352319353745,0.050180568074439075,0.047988845881155685,0.044464431439522153,0.041659080639062526,0.04078623743336567,0.041443093580295534,0.04365497860073306,0.04849267066491012,0.05453192147986518,0.056930642528598766,0.0531866039159149,0.045516222760801126,0.03585223301756707,0.025801508982860554,0.025510896780968517,0.04765703690214198,0.07890380060333124,0.08135580117555943,0.04698142856185701,0.017493862296090238,0.022398149679049562,0.042682926666127205,0.05393357534879099,0.05571189465642749,0.0542135822163146,0.05011406696725938,0.043849226728404696,0.039636506470412614,0.04091888337099803,0.04565106336432651,0.04936070677780543,0.04935984731515993,0.04594488798902619,0.04293366489915572,0.04355657290136498,0.046156591681205277,0.04859125403059187,0.05057238809248438,0.049859094257687586,0.04542687278716097,0.041412729756671915,0.04088940025674631,0.042620373509023673,0.04566728530337338,0.0493903184050917,0.05181615322798461,0.05196203691327546,0.04954513530511322,0.04372525562804093,0.03671062950726564,0.03616628798861021,0.04553162090746112,0.054287547751392745,0.05257130822966878,0.0469512098575282,0.04603291132879337,0.04698966436367609,0.04596818720690077,0.04482375910601187,0.04424050416917098,0.04143214818848527,0.03684541324247549,0.03979590644603793,0.057377889232986395,0.07206473146328964,0.058250916776547146,0.029301039766262034,0.021940037129179545,0.03842119174306019,0.05308321991421008,0.05505930249108095,0.051140361912276056,0.0480155819954061,0.046798737666192636,0.045582082015697266,0.04356236148542504,0.0428990245647535,0.044623191346121645,0.0463105497402222,0.04628078477174369,0.04596119165785661,0.046852632733383866,0.04790456108180977,0.047880590214790957,0.04739696664224959,0.046687203956817504,0.045389445250986725,0.044028286093672375,0.04326662879740763,0.04345905329849764,0.044840057109429884,0.04710602425390274,0.0495200171435806,0.05149976090581022,0.05172752173314049,0.0479413294813284,0.04026032076818648,0.03421372402534994,0.03786624527914316,0.05015483221145989,0.05573697575493689,0.046115317014202385
-0.18322081010725838,-0.1622286024969708,-0.15750643896853042,-0.16985822261193484,-0.18271363116520467,-0.1751893191540596,-0.15971213872756523,-0.17185764694697533,-0.2029284733484455,-0.21031183674893278,-0.188839790725935,-0.17005005978515592,-0.17260485794870548,-0.18552343504166077,-0.18835056530979138,-0.1789269606331024,-0.17349488177624203,-0.18010217710054116,-0.18988414441077883,-0.19445603370046013,-0.19262344095934028,-0.18307937848594452,-0.17015846598877116,-0.16724778043234312,-0.1794510347200794,-0.19556598061459066,-0.20048689923760604,-0.1898552357035719,-0.1750606054871178,-0.16903962482161303,-0.1727151692110528,-0.18353634755581744,-0.1982116905818467,-0.20198969924593302,-0.18226751351114806,-0.15751041952283862,-0.163247015412984,-0.19715133132070126,-0.21415653264395748,-0.1932708281356256,-0.16468394717628512,-0.15976011856495753,-0.17550763313712206,-0.19244817111011348,-0.19862870665383697,-0.19317480544440374,-0.18323361409027084,-0.17792447106956188,-0.17821335675102812,-0.17859740815013675,-0.17827990848041683,-0.18047495722207701,-0.1855296619525457,-0.19055377555677508,-0.1914622365973351,-0.1864836815630725,-0.1790155777384831,-0.17519277705962372,-0.17785603946407272,-0.18359891338065268,-0.1868979437634532,-0.18625386560109858,-0.18473676205908532,-0.18455232472468772,-0.18418347233901994,-0.18181878760440437,-0.17867057005279877,-0.17857629215020757,-0.18305238684093197,-0.1875837913571398,-0.18867727284530258,-0.1880715933020154,-0.18436117727253046,-0.17595600737832037,-0.1724888925339052,-0.18113138004403243,-0.19097433089232382,-0.1907969621772529,-0.184377168257531,-0.18014216650171788,-0.18026418277218906,-0.18101287404807412,-0.18092501514368942,-0.18276312071097256,-0.1863180934951095,-0.18834668963094792,-0.18713751730900643,-0.18310821835941468,-0.17843385298113038,-0.1762098063999898,-0.17869426203649608,-0.1852821472822564,-0.19116560816126504,-0.19085151269599498,-0.18450564764002492,-0.1773438806343382,-0.17496926331751553,-0.18051164895075922,-0.1887282127787988,-0.18858263076426013,-0.1798529285135886,-0.17509842051692376,-0.18233541663166475,-0.19493964381404122,-0.1966161331667523,-0.1806479779563526,-0.16488574901425987,-0.16971488080003588,-0.18890583893736437,-0.20056257866406033,-0.19178053027879163,-0.1711884646091032,-0.1661676914521484,-0.1866698344813935,-0.2044806082295641,-0.19728666098032016,-0.17842783627487716,-0.1665289276268568,-0.16523532489874754,-0.17354876323018345,-0.18856807694894592,-0.20210859726027836,-0.2047322136470158,-0.19251345171606804,-0.17404678557539496,-0.16390992211630878,-0.1660387905012798,-0.1764129039981082,-0.1910660523656934,-0.2007940195069526,-0.19626696372081434,-0.18172135797871014,-0.17183261806384276,-0.1758106586595193,-0.18629114146531944,-0.1878589957587657,-0.17914522211602743,-0.17465029679569136,-0.18268309392750004,-0.19434619496180597,-0.19592191914692206,-0.1844028052174941,-0.17052107532671662,-0.16806856114244234,-0.17918679509412022,-0.19393809005852541,-0.20178842220929585,-0.19595941035291645,-0.17626176215476508,-0.15833589039930113,-0.16332753108613932,-0.1866834436685859,-0.20212894175739257,-0.2004577209849707,-0.19128335149446027,-0.1790298467094918,-0.16853523408596796,-0.16967163494062168,-0.1807758141920974,-0.19048200843873067,-0.19268212417993258,-0.1874895773651688,-0.17983704806347467,-0.1779020884754433,-0.1826525060344128,-0.18611318245565991,-0.18455126855143641,-0.1829135861554972,-0.1840840311207781,-0.18401872467848548,-0.1802227767282301,-0.17667166428634645,-0.17828603075101035,-0.18531281140355502,-0.19271905975571288,-0.19419500853829164,-0.1878851589054344,-0.1782579466089383,-0.17223085106379843,-0.17237661472832544,-0.17695823597912397,-0.18551775134623893,-0.19532513275270452,-0.19872189853029615,-0.19244139131682794,-0.17942371238040364,-0.16510344490628173,-0.1630873340456071,-0.18149145002986186,-0.20033712873567652,-0.19818762029150147,-0.18366853320927579,-0.1746462412250694,-0.1765694354284579,-0.18457518793193758,-0.18861792513908965,-0.1844455023945133,-0.17855170602089732,-0.1781161561012694,-0.18322652912732726,-0.18828382820324993,-0.18831116296005926,-0.1843203350874115,-0.1812767252496666,-0.18074806207066427,-0.17967763347389773,-0.17936493113184454,-0.18509641567392457,-0.19199576809347751,-0.1882365615074024,-0.176364104608938,-0.1730519369385157,-0.18387543161062408,-0.19415185348865327,-0.19123275736304246,-0.18068131069263083,-0.17259620576874052,-0.17077757652086467,-0.178398023737959,-0.19373678934218233,-0.20296346666572357,-0.19509839541893792,-0.177304025486061,-0.16397813129634192,-0.1652111451608268,-0.1823944669746838,-0.1991261482146784,-0.19747442605012455,-0.1840611779488482,-0.17655878798908597,-0.17886873348109228,-0.18286150314655977,-0.1826657088542849,-0.1805222833177458,-0.18109812794601773,-0.18517532009066298,-0.18869021307925127,-0.18712956197946548,-0.18229175673147852,-0.1797553344887448,-0.18079084376042248,-0.18317398964784343,-0.18471944251314135,-0.1840013561073202,-0.1819596880785958,-0.1806083489705003,-0.18169692110234906,-0.18603319900376603,-0.1895039625377664,-0.1868183255708348,-0.1805775779708282,-0.17740775829097916,-0.17851098164798823,-0.18165948723640302,-0.18531690550186092,-0.1867045276828279,-0.1853801289238579,-0.18549356100891565,-0.18634014245450928,-0.18164934530462065,-0.17537991149172538,-0.17965845765734076,-0.1887864048308937,-0.18639774252774405,-0.17856268289223934,-0.18121780825116163,-0.1888568803565216,-0.1867898947420455,-0.17828191528276455,-0.17738377124764176,-0.18504920142543388,-0.19068420819729143,-0.18832503564205325,-0.18054383695129786,-0.174237857592395,-0.17488852211000047,-0.1822687817248695,-0.19166064044490852,-0.19643671332571266,-0.1909418121465151,-0.177474172195753,-0.16811355146134233,-0.17267004019464588,-0.18593127920867597,-0.19295574110896752,-0.18831539490150206,-0.18192476184043424,-0.18252414671157718,-0.18611454734710542,-0.1852639546482581,-0.1800609741358712,-0.17605454818543825,-0.17753423211631977,-0.1840018806104352,-0.19105845948509828,-0.1936971044044653,-0.18760775378078226,-0.1739606530125245,-0.1668600022896607,-0.17854391307274303,-0.19562706063429514,-0.19687222858764547,-0.18488087078003293,-0.17604598700789514,-0.1764409512882737,-0.18079494151311176,-0.18357262364099003,-0.18472811181067433,-0.18589176225818543,-0.18551470501629969,-0.18322783866756967,-0.18315418908992323,-0.18559592981953554,-0.18463882947755283,-0.17953382235860763,-0.17678920032589385,-0.17911630176713433,-0.18350758097525732,-0.1873222080244536,-0.18948142533054219,-0.1897973487136446,-0.18737617756791503,-0.18085380422816777,-0.17344023529187305,-0.17137675902671967,-0.17716091013191232,-0.1887011121094928,-0.19826983169436233,-0.19528213856605103,-0.18119956834306533,-0.17113615819302977,-0.1731740936774153,-0.1811679266306492,-0.18844475919660655,-0.19208590514383744,-0.18758718124736448,-0.1768890579806127,-0.17440717034996894,-0.18594865021361737,-0.19487223803178705,-0.18730697365029494,-0.17320448774412572,-0.17039614752140608,-0.1820804629641979,-0.19396115741289546,-0.19218103345700577,-0.18229948131749335,-0.17843231057506478,-0.1816524155382067,-0.1839940015232493,-0.1819104943159858,-0.179654107334088,-0.1828449846353278,-0.18768592647225585,-0.18636494815229818,-0.1810169843305944,-0.17943676821107654,-0.1843818556219265,-0.19063041346778178,-0.189267027688701,-0.1806320336869942,-0.174292887854351,-0.17151170547815495,-0.16886075461966796,-0.17788722518142602,-0.20781734390138268,-0.2282997505856168,-0.20104105988235688,-0.15151116396144032,-0.13787842106612413,-0.162904182628896,-0.18864102481008263,-0.2011055845299604,-0.20740500436576426,-0.20519028008274623,-0.18965004858537038,-0.1695203023846301,-0.15786891369235734,-0.16116692168802316,-0.17859204255400268,-0.19974752339347482,-0.20812341021215647,-0.19661058627492822,-0.17705508045774176,-0.16664652949981404,-0.17051509925998742,-0.1823708215347768,-0.19088802466401722,-0.18927930503481702,-0.1838665165715743,-0.1827182850926106,-0.18407564514970154,-0.18357399984606934,-0.1809847126643659,-0.1785211394752675,-0.17915121516140306,-0.18407742229238142,-0.1899452635072472,-0.19117178538891663,-0.18508120965714353,-0.17640861791799478,-0.17452568538823826,-0.18154472441583128,-0.18917823590139315,-0.1898650639032984,-0.18399246295584698,-0.17731461350096483,-0.17556951475998017,-0.18044080897703796,-0.1893466805883734,-0.19530525027662843,-0.19112377550018694,-0.18075617350704454,-0.17398386201696728,-0.17048455686177102,-0.17079442484662327,-0.18427633729634155,-0.2031512604540584,-0.2033243442538419,-0.18335232121592915,-0.16796884876675208,-0.17192606878039107,-0.18422390293542926,-0.187990079297424,-0.18126346524803424,-0.17481389389788665,-0.1781304826263254,-0.19157739761924783,-0.2038835055726786,-0.19845715663187238,-0.17545467560946765,-0.1580515702662523,-0.16382717308557077,-0.18446656546604803,-0.1997701346782544,-0.1987435128707036,-0.18637910742289315,-0.1759679954233843,-0.17579360314004075,-0.18258892716636171,-0.1866642081018342,-0.1843207135658078,-0.18080509000790315,-0.1801599037619596,-0.18201499325837123,-0.18525314965805828,-0.18713239768904105,-0.18551748974173962,-0.18276697173983178,-0.18162631321487938,-0.18182341588514525,-0.18190621581001004,-0.18129970302899182,-0.1828620128863219,-0.18746740924865196,-0.18680379800030084,-0.17827563974987232,-0.17662607760586368,-0.18789744670114047,-0.19425096060890418,-0.1851016178836814,-0.1733872175906886,-0.17237094766325242,-0.18183838972006644,-0.19309875960834955,-0.19496159268868846,-0.18474279108839992,-0.17395907863477503,-0.17373851885959268,-0.18141045413326765,-0.18721000955769765,-0.18751243596200615,-0.18584287647100456,-0.18423586200950565,-0.18235969758985088,-0.18130806990382775,-0.18188474360645462,-0.18357565148109956,-0.18430490490546358,-0.18222018483041777,-0.18059822097378714,-0.18276538756670377,-0.18602706389726267,-0.1873134810724552,-0.18559551648434283,-0.1808889003738318,-0.1772185337712288,-0.17939147229298016,-0.1855480979784251,-0.18902734780621303,-0.1865089689788657,-0.18065809744558503,-0.1772037738280892,-0.17975222602921692,-0.1854199848383588,-0.18944095072436443,-0.19041427301448313,-0.1854862157683242,-0.17399643414253071,-0.16911495879404065,-0.1817709152998755,-0.19672254779717552,-0.1938646993929981,-0.17963258495221288,-0.1734280016507827,-0.17984711323374336,-0.1882498936356582,-0.18893224901805067,-0.18216245118901425,-0.17627857729154794,-0.17898597596602778,-0.18729294487691822,-0.1903346192293683,-0.18443559590284103,-0.17806310069635425,-0.17943420488254105,-0.1852324725213235,-0.18756330125015025,-0.18563301190250855,-0.18213796549963734,-0.17769277616712845,-0.1751531032448944,-0.18038436107147499,-0.19225886982893559,-0.1985169899839358,-0.1905581631851249,-0.17544371707349463,-0.1665960547853328,-0.17037707966866236,-0.18430389050585366,-0.19879770948422776,-0.20001938187145046,-0.1844725155411182,-0.16832054701379534,-0.1683427546181665,-0.1825254821357106,-0.1967002898194853,-0.1976323440003812,-0.18240684901497706,-0.16554564402885755,-0.16815490557563273,-0.18955619013245364,-0.20290196758209186,-0.19267457929397214,-0.17469139181422413,-0.16909607647504427,-0.1775825018984856,-0.18929064237430246,-0.1936188138904792,-0.18808892067299865,-0.1795529698429748,-0.17575128625005282,-0.177838793708095,-0.18291729673573362,-0.18765348204014454,-0.1896362850435763,-0.1876333262099284,-0.18178393200050746,-0.17650719419449945,-0.1781274765490987,-0.18482585230383836,-0.18699810520948676,-0.18236132247507505,-0.1796668475115838,-0.18387881693573882,-0.1887231172999226,-0.18739675259843855,-0.18265820783996148,-0.18042561160212045,-0.18037324524730172,-0.17958735959866498,-0.1798876992702516,-0.18486779262068082,-0.1903530941369696,-0.18801612590217895,-0.18135986759933861,-0.18039101449227068,-0.18148613423362625,-0.17837105758665991,-0.17933798588855204,-0.1878649122268346,-0.19203494068279797,-0.18613676720090244,-0.1783101379249672,-0.17618851453816786,-0.17956223022967605,-0.1854227603056199,-0.18990797888393,-0.18806874548637087,-0.18169192463298728,-0.17917062226043404,-0.18155565010383756,-0.18241996436139463,-0.18135470231053055,-0.1828754782767448,-0.1864969947835936,-0.18760444216818015,-0.18411369605706646,-0.17957293475715147,-0.17885984758828344,-0.18199595419279394,-0.18601992373373313,-0.1880304683786589,-0.18517596443432685,-0.17910281768915132,-0.1774306554258594,-0.18308483155826497,-0.18870102926719023,-0.18724788218201155,-0.18051508020308465,-0.17640536190571238,-0.18046163854613811,-0.18893704992387747,-0.19261542917824334,-0.1853972388047353,-0.17261299403845046,-0.17177831013866277,-0.18712818070851817,-0.19646480210864967,-0.18795435521570636,-0.1778758195322297,-0.17772304512760534,-0.18112016780789267,-0.18279525286569887,-0.1844140737970731,-0.1861183331675531,-0.18504520563139176,-0.1816781089992265,-0.1803774891903235,-0.1823711263364807,-0.18505229136131157,-0.18614949344702925,-0.18477972287701036,-0.18227902946878183,-0.1807614546884226,-0.18058630185055902,-0.18168501520883698,-0.1839463558380104,-0.18593984255081084,-0.18631947043243008,-0.18489082586954,-0.1821781148252824,-0.18004318483082188,-0.18007409462262275,-0.1815041800963279,-0.18355314535634915,-0.18629969322013257,-0.18810779969827124,-0.18622133602974772,-0.18090900678184968,-0.17618923443353957,-0.17642659645428468,-0.18373376608569728,-0.1931478777250505,-0.19315011173752517,-0.18160628866610795,-0.17270806845905196,-0.17691423119818367,-0.1859302682528516,-0.18814606366754202,-0.18499522392329898,-0.18263763407894695,-0.18148932163021442,-0.180778864228267,-0.18243576566736638,-0.18608992154371395,-0.1873809827391673,-0.18406828051406557,-0.17945136995425381,-0.17816874797746138,-0.18158745621495848,-0.186905063588284,-0.18900299714760418,-0.18537277375624484,-0.17979337613488622,-0.17836399032014763,-0.18144109554200694,-0.18429710436471328,-0.18541219610573323,-0.18578515972091544,-0.1842427154444526,-0.18184334658468254,-0.18170032686431833,-0.18231390507186931,-0.18142041478592158,-0.18167059214373327,-0.18524946524796929,-0.18882523416810393,-0.18792765219151714,-0.18228262013854823,-0.17586489450143492,-0.17405887159907393,-0.17975509774684398,-0.19038952960892808,-0.1974890974054472,-0.19194562650121627,-0.17593899950810157,-0.16646613534730104,-0.1751700042383242,-0.18984338121888847,-0.19312173457526377,-0.18702690483608428,-0.18196757101630281,-0.1798938528380183,-0.17906098632977352,-0.18057885726966866,-0.18496387232811046,-0.18868538038240387,-0.18751466239121034,-0.181694451384774,-0.17661643246964304,-0.17801426033907689,-0.18492647330610928,-0.18994358305991002,-0.18814454861651309,-0.1823467553912086,-0.1784719868020428,-0.17881015480628407,-0.18173018773205743,-0.18461568044319007,-0.18587478715782896,-0.1861333354002791,-0.1858094673144414,-0.18361576783352054,-0.17999765040606117,-0.1783095670134737,-0.1811422713747273,-0.18612376938293337,-0.18751753578585434,-0.18369559502746796,-0.17975802529915952,-0.1812941035254137,-0.18703440871264937,-0.18925732319643992,-0.18209058684900548,-0.171386303811803,-0.1734465902603916,-0.19067250878659872,-0.20088404165772986,-0.19075984122191783,-0.17500040377358173,-0.17046809109274189,-0.1771103814156202,-0.18595273881309038,-0.18983902324221005,-0.1873785477094596,-0.18287627701751377,-0.18141465976305754,-0.18306199992103397,-0.1836904480340198,-0.1816424113680658,-0.18062899107733027,-0.18287164930976188,-0.18448904680839212,-0.18357395936894758,-0.18376207375526166,-0.185466590675313,-0.18490012172670528,-0.18174284550212813,-0.18004847824423126,-0.18220510694434142,-0.18475448683746318,-0.18391109911880735,-0.18219780378940476,-0.183238390482335,-0.1854132308936153,-0.184866598287963,-0.18147528766133214,-0.17996477608524114,-0.18334692909456218,-0.18739355921540307,-0.18572839441141464,-0.1785444238031399,-0.1741794982050914,-0.18038120641007477,-0.19239946566947516,-0.19528181938616532,-0.18416736953576357,-0.17370361562492642,-0.17624080679434667,-0.1847973596134909,-0.18813702449951433,-0.18600109654585092,-0.1833073534153723,-0.18101297323726923,-0.17851866607303837,-0.17924626421614195,-0.1862313194688054,-0.1933486158313215,-0.18968944863683618,-0.17612700094247208,-0.1666656610361522,-0.17031029811684104,-0.1832015674351985
0.06592231416716057,0.07054330674758959,0.0657629826538216,0.055863812145974856,0.05425004408818231,0.06569799974642256,0.07787366846278285,0.07713468244244896,0.06436212755547176,0.04903861934359142,0.044162570276332365,0.061652994224619964,0.09073874755920089,0.09719077493865308,0.06918138299906504,0.04099403130345862,0.04392173768447096,0.06536050014358083,0.07810642050980361,0.07557521535069768,0.06706012983384232,0.06155811141805813,0.06220440851887474,0.06651683170573207,0.06912299918884968,0.06793247351922449,0.06502479720149812,0.06246717583592916,0.06259218049092807,0.06643652215682343,0.06933338948341253,0.06723615081110365,0.06470779839384663,0.06555186880536201,0.06581309527640086,0.06571610073687502,0.06853034264094779,0.06833223196122126,0.062464871202041604,0.05990085498965013,0.0651274550160628,0.07348846617043889,0.07666923257358972,0.06817099776024668,0.05442271480854576,0.048202306039160134,0.05375475124114047,0.07069460304023115,0.09137564345534321,0.09728801386426983,0.07816977861117211,0.04339040201417535,0.01773935554296091,0.026923842327744724,0.07111596918378735,0.11844505742920015,0.12550996813185034,0.07911385371306523,0.02585905674324441,0.017880480476621226,0.045961988926921535,0.07117739997753669,0.0819097750128196,0.08780577381804468,0.08797802093614233,0.07340331642478681,0.05137572677530456,0.04250094118699255,0.05363866440906905,0.06901794201905134,0.073629828456561,0.07145650950497369,0.07066514065372502,0.06989297849818105,0.06639066534323007,0.06295548464648554,0.06263710176580814,0.06307428206229575,0.0618616325958579,0.06258379286998805,0.068457435886718,0.07309005763689762,0.06830424753661907,0.06195758144279021,0.0667545140926647,0.0748025246087211,0.0704107585508082,0.05659782702392375,0.05004726922951366,0.05942206335678706,0.0754892676802592,0.08179664197411399,0.0726723649306236,0.05875587050314752,0.05565258512613283,0.06547458280060016,0.07369219443061517,0.06862771183731942,0.05682048743804859,0.055931448483530356,0.07199672376350333,0.08373024415491293,0.07121554664424114,0.052519844074529996,0.05183462480092649,0.062174449702005766,0.07058942028620438,0.07618822325276431,0.07626508377166667,0.067134374528888,0.05593319474467144,0.055555690519456996,0.06645728062982267,0.07379399393793239,0.06901087704775685,0.061999954188809416,0.06370117090681546,0.07012715407188938,0.07065654271691267,0.06356608609613723,0.05798621728240627,0.06134877667939172,0.06973495080881212,0.07437669026963757,0.07198516604152208,0.06502915536872438,0.05872883076553796,0.058059137586380344,0.06274276759192468,0.06850361130129531,0.07265720747217587,0.07368175774854611,0.07055713996139143,0.06492329207609848,0.058761064492798394,0.053687145288000865,0.0543215276598938,0.06470963767323179,0.08018559020785737,0.08788239603126069,0.07900579818827584,0.05943874887291202,0.044716520966631146,0.045078190691659546,0.05740668551266832,0.0736339801631456,0.08820983170408714,0.08863133926422317,0.06758847811503607,0.0480116718512818,0.05077386060794645,0.06210009038190666,0.06728049162597424,0.06985560831827926,0.0714461479518831,0.06999184795150193,0.06803800084904185,0.06758401962854922,0.06570697854233591,0.06035425918626672,0.05613741257776145,0.05969005249709763,0.07077331390644226,0.07975808659691308,0.0758615966180077,0.0618320619122609,0.05368982815873694,0.060036681216950306,0.07023990518494644,0.07048119162148167,0.06423384798115032,0.06390225919099823,0.06927708934866844,0.07021533460163751,0.06444608631683556,0.06004607594879748,0.06255875108202069,0.06837750765184988,0.07068021026040439,0.06727388243502481,0.06343950376144925,0.06455231720981405,0.06724100838736478,0.06568351521032023,0.061917565527975484,0.06299945785113864,0.07041645922237663,0.0758760650724537,0.07161484563575835,0.061319345994075874,0.05365264388025162,0.05242105696818042,0.06080232786585099,0.08026373969572541,0.09280650889572498,0.0758959623094807,0.047045730187891016,0.04275299083573234,0.06073466815093606,0.07403636959761623,0.07444614570044705,0.07045560308607186,0.06801466064647146,0.06692060547837604,0.06484710032353884,0.061260259451539865,0.059737517743743966,0.06364373495029471,0.06992603936815724,0.07169426742656998,0.06726644186333247,0.06330821825578223,0.06482567672597037,0.06743076416189443,0.06698561898892465,0.06573529314864444,0.0646942976942706,0.06298711024849074,0.062154946869657286,0.06488415889102629,0.07113910673651119,0.07434170627559505,0.06839534789012996,0.05936220282513921,0.058213471273502224,0.06479309089159382,0.06960036593845748,0.06850920688659265,0.06558417523245011,0.06411922492809599,0.06463493634888373,0.067371338244129,0.07064921678294445,0.0706536004135239,0.06660299150021867,0.0622377830360992,0.05839549133980271,0.05435782517292334,0.06011058347167114,0.081135416326999,0.09179980145506979,0.07121525621013766,0.04586672343463884,0.0453601941485118,0.06051514151074891,0.07227430248578276,0.07671381413621228,0.07697738728458373,0.07231380493797185,0.06096024171432513,0.05152712046546448,0.05601848288435415,0.06957597871963081,0.07628388398863498,0.07212570913821445,0.065486723687053,0.06321392395028663,0.06508004955489527,0.06547606039257,0.06145197280644818,0.05941450412303339,0.06555738516486215,0.07359742717956894,0.0739012445748471,0.06748157790035568,0.06164638003747883,0.06102924871233191,0.06473008132457121,0.06749922611725502,0.06661976757761215,0.06527182806253926,0.06585986606035357,0.06561505260699593,0.06355225627467287,0.06500282688867544,0.07125121390983873,0.07386411099027032,0.06854588934876314,0.06138490684618268,0.05565562875301307,0.0511382292870007,0.05699248348489159,0.08002509580481153,0.09822075947233803,0.0821276997589816,0.047504803954215385,0.03727842458188195,0.05616659710739069,0.07413368614788957,0.0763709541856124,0.07155793617632616,0.06761505598116486,0.06459393864079466,0.06364467738153143,0.06565032483290359,0.06623849632708792,0.06351157307283559,0.06205190947481339,0.06433479403387914,0.06851827900674418,0.07185564169778366,0.07064826292433747,0.06500640572730146,0.06034616569519944,0.059520221400190115,0.06298286658966734,0.07024143331037151,0.07461347765593324,0.07023215130629143,0.06173623508704696,0.05777018343992058,0.061728513302911237,0.06948520939594438,0.07311017345993917,0.06938515200890079,0.0629616720932539,0.06039075294124034,0.0635277985942432,0.0682750513054506,0.06903502039420717,0.06514953915770935,0.06244250615972851,0.06544926209602636,0.07010029374428133,0.07045645195410355,0.06761617581173196,0.06419483321066802,0.05856761924448707,0.05317046831070714,0.05945853519027009,0.08015292651474783,0.09173543706220338,0.0739568769249832,0.04832843161150479,0.044916256035350155,0.05867786461325502,0.0714254190666351,0.07677944518868415,0.07523417927276727,0.07004013347514024,0.0646210299743091,0.060233836192389936,0.058265853138756395,0.06081727286841416,0.06669330595213911,0.07096589042486176,0.0709755967261263,0.06830367850053196,0.0653340616254251,0.06377381177239277,0.06387786052837185,0.06396742355922116,0.06349679430999022,0.06496839169541366,0.06896538284635449,0.07092649129934714,0.06783522696048669,0.06328903410440885,0.062408539938243635,0.06518801763946039,0.06765780908448664,0.06784127140291055,0.06629292322594235,0.06341875237550917,0.061477914523892924,0.06418184305472292,0.06959724097276088,0.07153028781346207,0.06890778169472767,0.06556286567246643,0.064194631511202,0.06348794895441129,0.0607827293092197,0.059081440030009695,0.06417350599604604,0.07345699693184471,0.07739889260752475,0.0727767194228516,0.06538749530721047,0.058837420112284544,0.05350098915787372,0.056372424052462254,0.07116712298001743,0.08125121909116029,0.07202916427948411,0.05886747464108498,0.05936189040380954,0.06546318566029478,0.06610079132439708,0.06455634684336031,0.06578769246785862,0.06766784601547515,0.06805731484001173,0.06895535668212008,0.06951339734271425,0.06608619241841102,0.060746990061236156,0.05935549258769869,0.06312554421483149,0.06811615565765802,0.0709275146808073,0.07154390818837893,0.06928476624497934,0.06315700957997272,0.05843022349165358,0.06065246918743879,0.06641866403426386,0.07013398858387918,0.07043496282840259,0.06793901638727748,0.06477227098663205,0.06291500955108062,0.06279400971952526,0.06494920508512786,0.06827989081534369,0.06915803787141717,0.06653034798726468,0.06407447889049983,0.06451048750154839,0.06609559954576222,0.06660300553182641,0.06606846672337471,0.06470983623691406,0.06320767679825462,0.0644247467675064,0.06917100741554898,0.0731183512470443,0.07150698372403011,0.06365036217058956,0.05367817572788508,0.050146879960785824,0.062250070394749585,0.08464700087993794,0.09075611557347674,0.06941317943826679,0.04855003565606887,0.05001383143329302,0.06194515354801035,0.06945995995595851,0.07131332498010567,0.07077267342031601,0.06971385800180874,0.06780869626790223,0.06458978708153895,0.06124251192034252,0.06046677537675319,0.06383697704702215,0.06881759552814495,0.07121284543258102,0.06899765768193372,0.06364668878967222,0.06053025526478219,0.06383746246555114,0.06963259032436879,0.07038654510550388,0.06603909671673022,0.06290167698635696,0.06333572882752327,0.0649488492780593,0.06643128101143114,0.06721313450045552,0.06670826170598948,0.0663541746505612,0.06761732149665353,0.06871641388699963,0.06616161324893657,0.060854486005980285,0.05895053287158303,0.0632331977844906,0.06967614535578573,0.07312031850273856,0.07177990132727455,0.06824204224099556,0.06519207229319506,0.06062307649442009,0.05381174167343965,0.05421216480557125,0.06978895734837588,0.08505913110507823,0.07926103303586876,0.062246457936817885,0.05560383713319881,0.05965118541690076,0.06423262104308905,0.06595314595817757,0.06793552716539687,0.07123805380461552,0.07019278439538992,0.06356728995479399,0.060153887350652115,0.06421757143702107,0.06834673636604967,0.06734529306152086,0.06523729765508088,0.06532852499158281,0.06665508406557275,0.0675858872471826,0.06597355311831618,0.06245973210818426,0.06258703460386109,0.06759166329498514,0.07051556494132936,0.06827611592731271,0.06534664503242664,0.06368002020754066,0.062040094001815704,0.0627222402533551,0.06765174829493667,0.07158746391146835,0.06952748328475226,0.06495757859716983,0.0627876696695073,0.06277195685090674,0.06331857944052,0.06501304365574481,0.06863229154314646,0.07154171337468546,0.07056367941668995,0.0664556303514969,0.06001923681401973,0.05282365275140105,0.05545083872518046,0.07509217381497722,0.0912248041755858,0.0780478112718947,0.051236874915320404,0.04558265701006463,0.060735060137313134,0.07345313019377947,0.07505755565249825,0.06991721759302105,0.06346609869079256,0.060949100514807834,0.06397531471067763,0.06789714251247823,0.06768689390300023,0.0647246369979318,0.06414635401053398,0.06661494714726499,0.06860415785254143,0.0681375723266461,0.0645661169580635,0.06027169610121939,0.06174603472485662,0.069102185489805,0.07349978986210545,0.06985032579102604,0.06251525693531543,0.05966226921847161,0.06376725344298337,0.06844148080117318,0.06863908923983578,0.06611258179256317,0.06319027078574921,0.06246197762759881,0.06741295973705272,0.07393068046864214,0.07234122146391908,0.06261477989890842,0.0551854670538815,0.056712133928319156,0.06474399696493116,0.07367061522402739,0.07802795722900145,0.07409694573948253,0.06452701011785184,0.05601755475587682,0.051518383247561216,0.0541013503455947,0.070097552205012,0.08955977891223604,0.08548438490991855,0.05874086854659754,0.04459966446684782,0.05586933832207699,0.0700057626141737,0.0721151668971151,0.0682502847821645,0.06693891032556527,0.06866788058547585,0.06847230045800488,0.0641436835777614,0.06017801061615614,0.06194078029830406,0.06748108497655289,0.06977630883072905,0.06678190901048824,0.06351311159188563,0.06508068146361087,0.07001127658748255,0.07106861025609996,0.06519453127077102,0.05852948215269908,0.05831815467631598,0.06478002725915537,0.07211741261787759,0.07432384266157491,0.070270473146232,0.06367264981826168,0.05879639057859535,0.05866430397130492,0.0636491986523855,0.06986688868369802,0.07295247862323803,0.07129191111369401,0.06632924290202036,0.06244911566950919,0.061888092743380106,0.06143368948977182,0.060488373715656484,0.06547967121127146,0.07625810221361098,0.0796839202009074,0.06923595218848362,0.054913164829153524,0.046995673317310124,0.05168782952510275,0.07386309193061473,0.09603371176337154,0.08638356926536059,0.05264652025576949,0.03701862611518511,0.052813307899529593,0.07554851194714468,0.0828217338507643,0.07427987007283154,0.0628269642466811,0.05777664034141093,0.05959267211644544,0.06480254480490004,0.06906266581493992,0.06919126136231832,0.06637511233563692,0.06526226597160101,0.067053184072475,0.06801301385441402,0.06665584750227985,0.06488465270339425,0.06295376808820193,0.06108247563083882,0.06280189939532722,0.06907847682448728,0.07365559170061822,0.07137251899510913,0.06471076706953816,0.05906457412341147,0.05831724535578016,0.06328249327003169,0.07004987529241777,0.07295545424157254,0.0705577907394106,0.06569675173829834,0.06169871043497871,0.06118685501879647,0.06419636944830875,0.0671935235528914,0.06768521890566409,0.06632611498336946,0.06503116115192634,0.06701839758995495,0.07223764940008998,0.0728822622516031,0.06262111234203802,0.04831420384482587,0.04712586629606774,0.06863567052962048,0.09441255133832067,0.09188116546959155,0.06292044100803568,0.04236913931200714,0.045048462069708535,0.05977407590491371,0.07515657802860479,0.08202738277716468,0.07608244592588942,0.06450773089179776,0.05839038692116485,0.06044512657535627,0.06407604468579,0.06449798835850157,0.06482534610552002,0.06823041216287247,0.07117745130716358,0.06910731347359494,0.06385388363832675,0.06168574626152912,0.06459067372980445,0.06740820097853392,0.06659960105343482,0.06486187549906616,0.06517599114192815,0.06693872060763761,0.06751759495278473,0.0658594814973357,0.06418290083522477,0.06471759578511241,0.0669815630737159,0.06905681569941005,0.06875508481921497,0.06488082059529257,0.060204678134515396,0.0594483356987236,0.06346289822695297,0.06945904080240595,0.07409778343339046,0.0750134181697571,0.0711082194157417,0.06201649468486378,0.05119577304200267,0.047032120394502275,0.05741564612842123,0.08082469451366363,0.09645918178146402,0.08268976134448772,0.0539815272793778,0.04234949853153855,0.0516317077703216,0.0655736738932545,0.07469832413808022,0.07740570345522986,0.07390908636749546,0.06595394394641213,0.05904000458566776,0.058404614751995446,0.06270897196177966,0.0673184756084644,0.06937115153856459,0.06852606734834527,0.06691718933881144,0.06593240939290508,0.06450142791116126,0.06257249143618264,0.0630382847155633,0.06777995932893671,0.07214735148260817,0.07008057700900004,0.06331867693741955,0.058473808688356735,0.06054285018065018,0.0680925446328042,0.07243285550048767,0.06928604853429132,0.06458973553273252,0.0640782574769466,0.06597198786863204,0.06558907225535639,0.06375690043336875,0.06461634441716527,0.06714319600056552,0.06788536760508755,0.06608932145805443,0.0634797816503385,0.06394368477730947,0.06780990142971893,0.06915943117269945,0.0662790249226799,0.0656189058286209,0.0681464027282277,0.06502752275419492,0.05652228325546341,0.059127968902153466,0.07662914412522888,0.0828263676617507,0.06418651495284294,0.04843092272730362,0.05607672384800652,0.07053587805756947,0.07387509751950194,0.0693587976060441,0.06658827968455336,0.06714555032913655,0.06603055723162281,0.06126331595363899,0.05881978807675862,0.0639769632237081,0.07186663028777446,0.07397433490734527,0.06890160332752371,0.06277432783335704,0.06160849307984828,0.06369583167570783,0.06368635532133404,0.06284343512746993,0.06606244069273515,0.0719641205080368,0.07368481940755528,0.06828512792587713,0.060713827942167564,0.0576823806484501,0.061255947923012304,0.06751987274791922,0.07075708754859265,0.06946972489325504,0.06586952378944319
