0.06578944516112534,0.2031683418122586,0.06356279755071192,-0.0879973035592464,-0.0756998230137424,-0.06340301843171275,-0.11975090497855168,-0.1539687303082753,-0.14510185358773176,-0.07054078166705635,0.12067940190431276,0.30381778251330993,0.26659269935798374,0.016304181494740333,-0.31995858228716345,-0.6376970410326378,-0.59765277990723,0.12344241291570346,0.9119716926206014,0.721700760547753,-0.18649514112420162,-0.6578641224715401,-0.44656767264283764,-0.12140810846876313,0.020751978966189105,0.08527849813493263,0.15772031269432346,0.16327112088670293,0.04863556738455316,-0.10852045049593462,-0.21060571005357526,-0.19340053504945753,-0.043854978765492214,0.12273911342066146,0.14304736109361665,-0.02400194787211013,-0.207132368491445,-0.1717359043497093,0.02222724354914757,0.06869597122420967,-0.06259878386070034,-0.10584962159028388,-0.0005740058848928697,0.11721332460775319,0.16325956856239138,0.04505101958265423
-0.06259878386070034,-0.10584962159028388,-0.0005740058848928697,0.11721332460775319,0.16325956856239138,0.04505101958265423,-0.22084508356744992,-0.40352634783534136,-0.31366188644633997,0.010443007446197541,0.33864474056389876,0.4319530470626768,0.2495175853111219,-0.08849440386310459,-0.4632187292744041,-0.6777785073778004,-0.3731306003328463,0.38620516594718546,0.744498791423115,0.26000783573836067,-0.3525490953643202,-0.47587156791050206,-0.23879300948838256,0.06668733852362022,0.17719896455863654,0.03735370631646673,-0.08094261878278725,-0.045683438564392165,-0.003846492774658372,-0.02818243591962838,-0.0451414895334864,-0.02010094653125072,-0.01772884239493272,-0.04798027331749899,-0.030568147954218083,0.0235610919936719,0.027199650257824004,-0.05424269150024813,-0.1721442409066039,-0.19630198024729723,-0.046284806759319286,0.15986012239208788,0.2061165798728114,0.021979395061551832,-0.1976264462313212,-0.19472511001651688
0.15986012239208788,0.2061165798728114,0.021979395061551832,-0.1976264462313212,-0.19472511001651688,-0.02349126915917038,0.024787773734883556,-0.08739479445805926,-0.11957906477776692,-0.01526996842177436,0.0735282326885961,0.13257710666201294,0.22559062787345718,0.20614629963289366,-0.17359094932812114,-0.7739051361192409,-0.8746389871749456,0.023739794379945722,1.069942369308135,0.9187449414001143,-0.13472407525079122,-0.7271112268317946,-0.5384734261394847,-0.14500807822980147,0.11098492070282681,0.23199274845008022,0.2225911832638382,0.034484587113710385,-0.18085875266187484,-0.1884017531412845,-0.0718675969178047,-0.04439699467168595,-0.05760245976537848,0.01614386938427892,0.0991525876612242,0.06386916431414069,-0.055937917449942476,-0.1526464718957437,-0.16264551570538732,-0.07109113122638427,0.07128077401679811,0.12727698754219446,-0.012395514928142948,-0.18711514186110512,-0.11305215601284119,0.12185298169296721
-0.18711514186110512,-0.11305215601284119,0.12185298169296721,0.16427066181078132,-0.028621600307619954,-0.16910395878062667,-0.13999276087851759,-0.12850048228628824,-0.1883488615734585,-0.08880490650894068,0.20964616435116218,0.4010907514727662,0.2950576932421048,-0.05450028309370736,-0.5479819118381168,-0.8483960764863208,-0.38692281073590784,0.6566974127061038,1.031713451175742,0.23776674098319261,-0.6011764772844167,-0.6308327465423589,-0.24178913383714762,0.05032560668349914,0.1847239053104405,0.18999643431674457,0.08131730548527427,-0.040278332256231786,-0.11695748877713663,-0.14178217657183612,-0.07459926086641638,0.006111493613028485,-0.039321580802703815,-0.10782310239682452,-0.006538925570785392,0.15851756325574845,0.12742007555439488,-0.08915929971164921,-0.2368546285385869,-0.1930992773975424,-0.0449561852763633,0.0970731629359079,0.12272571843567903,0.004402082274385377,-0.09156387876109184,-0.05142445716217908
0.12272571843567903,0.004402082274385377,-0.09156387876109184,-0.05142445716217908,0.011492204468550316,-0.019227676708022057,-0.09531925942664077,-0.1448340942401457,-0.1574823291897028,-0.08767224477602598,0.1029904960351484,0.3140408915642531,0.3202181604544758,0.002272229529734604,-0.4441965989299548,-0.6480795054290939,-0.32114157622385936,0.3772194282225676,0.6717347040995394,0.19314800768433216,-0.34515062700694443,-0.3744448390134729,-0.17264260438663287,-0.056400241638663196,0.025400566789547968,0.14582882420076962,0.18333657746505494,0.03727461755623679,-0.1775121781251935,-0.23919834558889175,-0.07201759848514283,0.10939282748557277,0.07296105328828201,-0.09531468469787013,-0.12819824129585877,0.022730358105347848,0.09601485469442228,-0.06346459276866995,-0.22816455685143266,-0.1430124665553107,0.09126379467918905,0.20493497345508987,0.1224391935020469,-0.05702530523085936,-0.21913609682512963,-0.23737789554699107
-0.1430124665553107,0.09126379467918905,0.20493497345508987,0.1224391935020469,-0.05702530523085936,-0.21913609682512963,-0.23737789554699107,-0.09069968358591687,0.03585894529362199,0.03250226856936783,0.03733110102329268,0.12764830893065982,0.1596969966340876,0.0386387694235768,-0.18529974080455403,-0.4625719075779611,-0.5462904463468196,-0.025758618249602284,0.7379728958798171,0.7128953065212231,-0.10649847280579317,-0.6526011743600907,-0.4873451959125368,-0.08319745704010523,0.14878878067504278,0.19890848270640066,0.15834182084310655,0.04583076329845054,-0.0874743858950171,-0.15786269151905807,-0.1561184141056811,-0.10338114760103612,-0.014580208757759339,0.07336346130344101,0.09777726544993515,0.0027318547606378085,-0.1375903453705013,-0.1501227910904846,-0.028159016532762482,0.06682097661900366,0.05672331411926029,-0.026106891265515964,-0.1036744070843339,-0.0789981430353498,0.02649940658726191,0.055016914354102664
0.06682097661900366,0.05672331411926029,-0.026106891265515964,-0.1036744070843339,-0.0789981430353498,0.02649940658726191,0.055016914354102664,-0.06551569754687059,-0.194255378373011,-0.16405021279146098,0.026109220350858414,0.2356313040006288,0.2648138351322166,0.040558670228053706,-0.29852685680592217,-0.5342256112520545,-0.3529714941739922,0.28995716070183636,0.6823517262294877,0.2814232059964474,-0.3721444482246453,-0.5642118722254632,-0.2696477652336571,0.12380651676798819,0.2579051599168817,0.09651488743034653,-0.05987917976519047,-0.02775331882782306,-0.015246171808930509,-0.141370514048056,-0.17931858851808258,-0.04958475721836164,0.07102032512984086,0.10605778478188793,0.0851786259313192,0.00998225965194921,-0.12332194893613019,-0.24845670310103884,-0.20701674246396493,0.02836965536037575,0.21229894687695433,0.15752527662580362,-0.030859375210958717,-0.16610197250068492,-0.1442916250723339,0.007038710827109496
0.15752527662580362,-0.030859375210958717,-0.16610197250068492,-0.1442916250723339,0.007038710827109496,0.0947144966951215,-0.029044511769456716,-0.24935192973579412,-0.3066038571183254,-0.05929354868633813,0.33513138539367804,0.510903695391864,0.27921562533702504,-0.2149660128973765,-0.7211243748551428,-0.8726400684459512,-0.23388688086219978,0.8101996084561764,1.031456703430257,0.19127581115702552,-0.5876458565735425,-0.6240304537121052,-0.24252668811905367,0.0987580159572967,0.20613172952809675,0.08734656084358439,-0.06363497276178592,-0.05759736756449363,0.026582544557798182,0.015802308446901725,-0.06259175246804638,-0.08144958821013926,-0.04851486072728056,-0.05922902411791986,-0.09198273355164721,-0.049525598126138215,0.06188211345334227,0.12589361024764828,0.03861196120314819,-0.1515050059962656,-0.24488361924482083,-0.1120023042820889,0.10225461729859817,0.1412913069187361,0.030677126420775858,-0.016260086986890077
-0.1120023042820889,0.10225461729859817,0.1412913069187361,0.030677126420775858,-0.016260086986890077,-0.008897120475814313,-0.09852256293799261,-0.2591250270178529,-0.27612340985962414,-0.0327093872714358,0.2815716163999715,0.38759343972010085,0.23118829613803504,-0.054037438567133056,-0.3836460552123526,-0.701453082850584,-0.6224279707143179,0.2131479478172177,1.0577293750710899,0.7839532845416884,-0.24406022757499057,-0.8055744157214466,-0.5802124874735719,-0.07213225066377368,0.23404268718417132,0.22457630086401428,0.09393978808494563,0.021492482844753025,-0.007135010533516173,-0.07081137498263901,-0.14271825008327965,-0.136618574723456,-0.09093940735665879,-0.06612641636367411,0.02711689418353075,0.16244645107059016,0.11731887439061645,-0.08555826374919012,-0.1668021066674759,-0.07957653597119024,-0.023320592502872717,-0.0701010905500668,-0.09940329216783544,-0.010586476246077225,0.12253938007107057,0.13631335610744
-0.010586476246077225,0.12253938007107057,0.13631335610744,0.013800194406704547,-0.08970488381262709,-0.10424430348227853,-0.13873179078407244,-0.2437652170710362,-0.23773199373368745,0.04914133174466512,0.3950496306127583,0.4137065516824799,0.1296877308904485,-0.14861012542339902,-0.3972089330441405,-0.7098375419434361,-0.667831074559301,0.19278045802457594,1.1361649767150328,0.9024458134726554,-0.22216623064286778,-0.8442219073026913,-0.5795353206648413,-0.10653587613013515,0.1364078159685026,0.21674104885102946,0.21378375378094933,0.10090271646238502,-0.07590093490051697,-0.17893988642151332,-0.150585019228416,-0.08844252825308174,-0.058223242980490086,-0.012582846734654207,0.06067059493047028,0.09778084842762624,0.044424556362764434,-0.07275743550882985,-0.15137428669557695,-0.1263102716292241,-0.041227804007255564,0.024817617046161256,0.05162704652786543,0.054233987883054224,0.021192160513301028,-0.04175462991312939
0.024817617046161256,0.05162704652786543,0.054233987883054224,0.021192160513301028,-0.04175462991312939,-0.09140046196017593,-0.11313698559319019,-0.12426113686376117,-0.13542544942539447,-0.08339245268141507,0.12876010474046695,0.35704264430194865,0.286524811835854,-0.08414019431780995,-0.47426379072774094,-0.6376546741584357,-0.31132612102087376,0.4271100749402509,0.781984759708149,0.279296066535075,-0.3908388298518204,-0.483583499544964,-0.19027312343224329,-0.0068633130411743515,0.025078451502046656,0.08125839275529967,0.12769605366188153,0.07886116611291472,-0.03781997382874225,-0.1688730417391664,-0.19970451122586647,-0.04582098970789433,0.11963207176375493,0.07177709315002656,-0.0747979105764695,-0.07642554399758311,0.004952357517269912,-0.01986690253175888,-0.10980151370179186,-0.09328487470767316,0.027329422279954996,0.071852480854953,0.009454219598042046,-0.02274481554223956,-0.014712825086461434,-0.0352266430156572
0.071852480854953,0.009454219598042046,-0.02274481554223956,-0.014712825086461434,-0.0352266430156572,-0.06506804351214701,-0.09083347483732651,-0.13211570558258295,-0.13197576926167465,-0.012404845963469469,0.1700532170159938,0.25230319421874925,0.15654240205108733,-0.07948994395513242,-0.4207810616981922,-0.6368839776388798,-0.23938608960425733,0.5957990078598216,0.8003291688660522,0.10073152974295352,-0.5130997325167759,-0.47807042590686805,-0.1669911651704969,0.05040665410917988,0.13922958780166003,0.14580215564882232,0.07826514826148678,-0.04141692990171686,-0.1301332994782507,-0.1377905020058815,-0.09841519944963112,-0.028838637002999934,0.05080619583300655,0.08099510630798656,0.04323861888693059,-0.03474419969676157,-0.11057846805871552,-0.14168993912389694,-0.10033021399266301,-0.002027327711373761,0.04458881910545498,0.0019961967953281423,0.03718719249016411,0.12680522264974114,0.010729731538869414,-0.21113360266690606
0.03718719249016411,0.12680522264974114,0.010729731538869414,-0.21113360266690606,-0.21016632328917068,-0.014631138268656418,0.10076731112404491,0.0075433471457512224,-0.1483689875519275,-0.12812747121297946,0.06739901196554399,0.21924883404848816,0.21117727932119007,0.053340048819223274,-0.2850739953786279,-0.6748548989903347,-0.5652055709242036,0.3033361241281593,0.9988250711117688,0.5695272130416911,-0.35318638102991795,-0.6867392213650231,-0.43170423068534236,-0.04776268630741343,0.23733831079456963,0.24909412762424274,0.023462123812565683,-0.10954028253105319,-0.03147689936091114,0.03145005606952306,-0.04158101588277713,-0.13699497444313985,-0.14290839532518246,-0.03828571206417031,0.09846351603793285,0.13187599857941573,0.021368174057627753,-0.13139606692369832,-0.19618506187980944,-0.13418206438084074,0.015249821727128632,0.16006398856738663,0.14206678259394545,-0.0630382489894088,-0.20537609644017962,-0.09847287205705302
-0.0630382489894088,-0.20537609644017962,-0.09847287205705302,0.08553572680812471,0.09686898951423883,-0.04904966728262622,-0.1860497366239648,-0.2246497058611691,-0.140881661617856,0.07247705227180659,0.3107483469404435,0.36313492775130146,0.1518341799725833,-0.21456904015578948,-0.6270128982946285,-0.8097258532277143,-0.24979634173440116,0.8292597551450015,1.1509648321908317,0.2531366671898211,-0.692915696827791,-0.7819004436768358,-0.3468001414449903,0.07217742413369647,0.3013352551369628,0.3060284162076195,0.1217163848237604,-0.09199326250933337,-0.17501384150936716,-0.1431228075001829,-0.1086890286258253,-0.07460763590143049,0.015683192494447495,0.1071665460211193,0.0860488850204314,-0.0521859934883151,-0.152894749401701,-0.07164611321915787,0.06754361836239275,0.02238786766040951,-0.13366195044743895,-0.12251920876051392,0.029676159449930573,0.06738471774627813,-0.016036528170474684,-0.054732521821024616
-0.016036528170474684,-0.054732521821024616,-0.027007341672389162,0.02995585962323577,0.07141742606019913,-0.018839881575184847,-0.21854110475684907,-0.2842833901127459,-0.08697844467541585,0.18520839686654927,0.2780529595537531,0.17912947153257303,0.040747932973853596,-0.09009214102974761,-0.2865036637570725,-0.5033712589369395,-0.37904504278794543,0.269523502391255,0.7291810435964676,0.34897588944635466,-0.2896400773968515,-0.447311008181319,-0.27196247956822334,-0.1500625397509331,-0.06061486803747829,0.1642885181627715,0.3449898117477915,0.18923098846617437,-0.1287187231356951,-0.23089289720320766,-0.14349854475555263,-0.09576919708406417,-0.06518535155460631,0.041484190174786495,0.11767468277134069,0.06575657443657451,-0.035884269905883615,-0.10804922732163513,-0.13004571701444034,-0.0629951624980446,0.055615670028202335,0.07434110098887181,-0.0505640597014253,-0.15310420585800827,-0.09228129663038642,0.06496499364179192
-0.09394132525141152,-0.09963098239044849,0.026599030078277075,0.16577847422119651,0.13703079401908413,-0.09192202298955698,-0.33080132541036256,-0.30281771081911646,-0.025227093282518903,0.16307930578306018,0.1427791614113047,0.1372675488177667,0.22446011672827781,0.1679225996239967,-0.2206276309831393,-0.7381549635734351,-0.7653565795854148,0.09771069518063169,1.0273313680525278,0.8104529614448969,-0.18047501459618942,-0.693057006554644,-0.5056778052913513,-0.14823866681049888,0.07927575362229249,0.15300392011584787,0.16875448783437086,0.19703129369800892,0.10865454858480711,-0.14480432881648786,-0.29408828880230287,-0.1925773359369562,-0.0394803744927526,0.05021893485251508,0.1393126148193713,0.1523551444515333,-0.0013471015328263558,-0.16938738388155622,-0.17609062683001042,-0.0745656462955318,0.002960386852958463,0.028975367210385516,0.0015946545886224017,-0.04333149210727977,0.009346290497429521,0.10092382613300677
0.8948108693919393,0.9085555857759989,0.9424119097034385,0.9465145434285455,0.9643212366187799,0.9704107860600779,0.859887641601821,0.7021197741231797,0.7077539469237358,0.903643393410032,1.092957098666428,1.15477191800465,1.1415635676109663,1.0220933182371774,0.6346534788864089,0.2129947666062182,0.4760153305647261,1.3871729249601674,1.7850273429183854,1.2323802275185356,0.5945999802781662,0.43836379601395975,0.6143107548278388,0.9016902768380787,1.0987677319057276,1.1052421534398011,0.998760343709145,0.8920633427239031,0.8704197283999384,0.9052019106330028,0.8703408577165479,0.8012721147138828,0.8641670226976703,0.9877061879856813,0.9726456411702991,0.8871435573986626,0.889798657730021,0.9344494265324725,0.9220157612146476,0.868884744121669,0.8381705023651219,0.8658813743037946,0.963706660948293,1.0710914197799384,1.0513099202460943,0.8624078651964562
0.868884744121669,0.8381705023651219,0.8658813743037946,0.963706660948293,1.0710914197799384,1.0513099202460943,0.8624078651964562,0.6588497886162783,0.6357109772936077,0.8476904938833215,1.1523366634594874,1.2943329945226654,1.1738554076393646,0.9147196113489979,0.6082761415386493,0.3429925540962344,0.4810283491851375,1.1914799211912273,1.738800648904974,1.4049540944596193,0.6598156795895015,0.2942771103289317,0.4221483863666917,0.7941694671327894,1.1823680022158234,1.3898556123001213,1.2793217577631169,0.9253931463852889,0.5896054915340871,0.503372257164159,0.7189388550655035,1.0306004789687997,1.1695187824300506,1.1156440424914784,0.990872259642656,0.8363538359985293,0.715060552077855,0.7595273606142111,0.9264984313389769,0.9955916924497225,0.9369476403202537,0.9250307884685153,0.9699778175520176,0.9399874881850954,0.8987243707039836,0.9640715617063177
0.9250307884685153,0.9699778175520176,0.9399874881850954,0.8987243707039836,0.9640715617063177,0.9630078933318033,0.7443702359379576,0.562294088367281,0.7075712913534298,1.0772786024413454,1.3556370027296427,1.3753649116193736,1.1555530585548173,0.7441586216964823,0.23318978793730466,-0.021479069032684928,0.5311760330894923,1.704793229681136,2.184736955329871,1.3635305612307516,0.3734254785127358,0.18699705470683325,0.5250983986193173,0.8846243588602085,1.1248140836523528,1.2145838567152643,1.1037502258543181,0.8972839472864129,0.8428912696501458,0.9004397866895605,0.801551238316554,0.6359822712382877,0.7359818580998365,1.0914864932990263,1.320791773200738,1.1316678954112254,0.7280753533132974,0.59594494078664,0.8344313449466546,1.0726439465195718,1.0251627675192552,0.8106889083652821,0.740260822745269,0.8884173225606298,1.0180269555114176,1.009009772244844
1.0180269555114176,1.009009772244844,0.9890926004524618,0.9810389999913685,0.9049408806147557,0.7994162957718012,0.7308131515835453,0.715051272244671,0.7986837311931086,1.015957418321285,1.227747383821466,1.2408372210240086,1.1047049531715674,0.9350396483811843,0.6243342565520984,0.1850457133466632,0.1785143142517036,1.0763336817596778,2.054726578983702,1.8470616652150258,0.8079451319194085,0.17839732226669902,0.22472058634923608,0.6014779488891748,1.0875206146679133,1.3818112346118452,1.251994073985549,0.9207600877883434,0.7521424846313891,0.7979704405083853,0.9085971942799684,0.9390466134003685,0.8600603990898138,0.815759941930858,0.8959635609047207,0.9885583392427484,0.9974658570143117,0.9503940673088566,0.8806817880351278,0.8310066539318045,0.8537096492956732,0.9105610172742284,0.939262241011177,0.9622226786091659,0.9724252955516632,0.9031149402985054
0.8919858823007796,0.9898627491871531,1.0037115748613876,0.9633401080331173,0.9561797603695814,0.948167411810567,0.8530144069036447,0.7036922581711259,0.6632208983797755,0.8384226264963633,1.0986548116432011,1.2454632277800566,1.2493561788564076,1.0925200085995264,0.6934953106262375,0.23192174225726847,0.28029030253313425,1.073041333566717,1.751506773328961,1.4736299110992,0.7414149905624103,0.417776069675436,0.5634530651039115,0.8162260018142945,0.9895470058148571,1.1116458005996284,1.1608339780850114,1.0474021498322745,0.8389497331373093,0.711607904371686,0.7454440037185728,0.8794929829566646,0.9873396863283396,1.0114619557687732,0.998795695663867,0.965975217853014,0.8703911867019102,0.7737506422551784,0.7952419679339284,0.8853575540023035,0.957838349734263,1.0337089444824261,1.0552277286218312,0.9466943857934059,0.7970844204162025,0.7386992608033519
0.9660644032556222,1.0080031048611975,1.0509422422087278,1.005199955271133,0.8682140713251791,0.777743263218534,0.7879610754544399,0.8038290447963997,0.8244680727483426,0.9595406137182372,1.1192124302593789,1.1358701425420759,1.0692706587089114,0.9602475049328904,0.6875252127360654,0.3553459850093484,0.4814427752216125,1.248852629955326,1.7394618497096772,1.208768931447413,0.4634312793463084,0.43333468406125475,0.8045885471756979,0.9635966829105285,0.9343596503148267,1.0188844571306066,1.170844651187186,1.102023601208515,0.8276536278887474,0.666585611946181,0.7545683496657069,0.9079603487363775,0.953806543064509,0.9499221612665519,1.003784429607891,1.03951420930438,0.9189037448495119,0.7440566867986262,0.7536253989404599,0.910874932908498,0.9934606899595801,0.9728510365691502,0.9369645494601282,0.902494586086251,0.8923682482577963,0.9190759147819142
0.9190759147819142,0.9178350266696732,0.868950064231063,0.8510118622928549,0.932432770241445,1.024471365279576,0.9383823971542717,0.7371232047621117,0.7189604006956014,0.9373628342615006,1.12749966128474,1.1242781390336403,1.0209861191065759,0.8885725748239375,0.6701859770088985,0.4558499745434943,0.5730498836798062,1.1568557878233694,1.6663646530811869,1.4075818814326888,0.6569434208980899,0.3161493087649108,0.5790030727523223,0.9393463173863945,1.0965619288309993,1.1039902100862795,1.0315979861813291,0.9341655336889634,0.8805033413879628,0.856774872030379,0.8339529060685713,0.8323415128476309,0.8309166587081136,0.8292630116586468,0.9101033503259481,1.0686784723960798,1.1619766322292975,1.0758840009805652,0.8294027545829357,0.5902960348420504,0.6102227114227322,0.9045696507553669,1.1134958381888018,1.0403437472279824,0.9465639708043642,0.987554143010228
0.987554143010228,0.965937838676258,0.8369724714827226,0.8014922800592639,0.8791034857516972,0.90960376755826,0.8783254566493585,0.8757223336811136,0.8689069121685734,0.8417766112970925,0.9310258166510464,1.1527411591398473,1.28791667224299,1.119218750364053,0.6244861132999632,0.10365442674649059,0.18852723859856413,1.1653100286839462,2.071238299358389,1.7144518314733794,0.6112656106155766,0.13204552763570987,0.4589117589283731,0.8993174750125137,1.0816663213226019,1.060559457654565,1.0052401687632737,1.0122097788242699,1.0031635155192817,0.9260015708117995,0.8800841499147454,0.8338007560891684,0.7160846018460569,0.7255460776223804,0.9667267536638884,1.1573316379380394,1.0851208472701925,0.8914657393573546,0.770239947588578,0.7964630612197204,0.9437696435752028,1.0130646874084452,0.8663048543332926,0.7239005778100289,0.8344823506554793,1.0488730825587966
1.0811317686223252,0.9535076138140864,0.8679925453984655,0.8857907754416676,0.9260811867994475,0.9021179966740672,0.8168328681363617,0.7360098667118072,0.7313822799677515,0.8871385344115346,1.1698206452924702,1.362354507452674,1.278843587441174,0.9142217115925488,0.41730601857014443,0.04623817938736463,0.24154920324698392,1.2357330506104298,2.143943871572998,1.8200475257479043,0.7240120260797238,0.14425148925529144,0.3396151422881679,0.7381572166974332,0.9993789794197248,1.1524349778329475,1.192005182816403,1.0666522542462915,0.8937852608312915,0.8183563608864779,0.7804948410102436,0.7289340731619245,0.7963925892358812,0.9777613672607904,1.078710266533055,1.037883825894894,0.9415620988857077,0.8809972642860953,0.8812941977872916,0.876186747436876,0.8515760183710228,0.8659659525122321,0.8742948131596678,0.8401848819235095,0.8891641269321618,1.0498523990617943
1.0498523990617943,1.1103212575534278,0.9754816020542959,0.8246571084525766,0.7925649891820121,0.8231229150679165,0.8045581534797723,0.7545061169596922,0.8528152668207307,1.1266931012011707,1.312370259773795,1.1976100586649663,0.881833030420676,0.5814818135002455,0.3575892096831146,0.3702908324858829,0.9430701193089828,1.7146430746159316,1.7483725211485175,1.0159007951748555,0.38114462082960665,0.29618105900928965,0.6128825331043546,1.006051287099212,1.189791165891909,1.1160491635476835,0.960052928592853,0.9129069729624703,0.975146593732346,0.9474505570384207,0.7434084351683874,0.6243476074572354,0.8351373477047931,1.1375630006091404,1.1237111920823095,0.857411733427452,0.779333319293973,0.9662358111879805,1.0182344963665155,0.8188486611983471,0.7081230285665803,0.8384742744075074,1.015796517134721,1.0739684511803649,1.0139352091071645,0.9207658300285262
1.0139352091071645,0.9207658300285262,0.8328408594172823,0.7588500800960981,0.8078434153251554,0.9877476145421271,1.0462947765621409,0.8498059684082953,0.6744150160016281,0.8215641393327696,1.1467827109745388,1.2884535471683582,1.168165351162855,0.9082930176797768,0.47754553018596296,0.06331152882449759,0.41500364143604285,1.5704230513366522,2.1306945359861107,1.3454376624834166,0.32601473576926215,0.16380734267972274,0.622751757034474,1.001793178993459,1.0898127552321037,1.0948226735423943,1.1365681341445666,1.0889438733793737,0.8515288244080549,0.6062522794741648,0.6157908887660919,0.8406927389912017,1.045376196272644,1.1395745703788653,1.1110630290391612,0.9134133078649764,0.7110330368918204,0.7550182416167085,0.9205008191718146,0.955969228228885,0.9290454226919471,0.9607271918172455,0.9643252934294247,0.8860087023890606,0.8235473864377222,0.8445718754195275
0.8445718754195275,0.9358080380923808,1.0195977203255904,0.9784787598566095,0.8619533019719109,0.851491611634346,0.8951885878555345,0.7985914321929026,0.7062650913605438,0.9122184815303459,1.2379365292266828,1.2721999457496755,1.0271688057364583,0.7574125312942175,0.5264592087153632,0.4272769087622271,0.7702286802991837,1.4218569328633612,1.5721183007729909,0.980820204880932,0.42528502429161086,0.4506735806468399,0.8212921849529559,1.107636423680049,1.1205219781848998,0.9739486642588887,0.8875910235290484,0.9057270133609565,0.9292423689684791,0.917386801705208,0.8726680321339078,0.8064486935737406,0.8241149502803417,0.9796869512022941,1.0927102620160438,0.9805941294720604,0.7662364985787607,0.7471746245350188,0.9485645909747061,1.0496603906538453,0.9054268132354661,0.7819609484828627,0.8818197641787819,1.0237325923355378,0.9815291734749549,0.8573568274645318
0.7325312022956321,0.8335785700754589,1.0539783041221527,1.084178199549316,0.9148459273749087,0.8311452895000289,0.8781702194685279,0.8254722519375296,0.7161415272594039,0.8068667063551398,1.0549805422339085,1.2399341121202871,1.2462408153648779,0.9822367136006435,0.46315694680343794,0.10258910055698284,0.5451145106462977,1.5962089603837917,1.9696126906905393,1.184896283199425,0.34924455614863403,0.2979985257658183,0.6806381508199549,0.9687497056715765,1.0737126754661654,1.0874803706508578,1.050599935728386,0.9722701636772203,0.8800914124169039,0.8214562797291584,0.8054464954280939,0.8147883293250002,0.8623557384467028,0.9250771760051943,0.9720481415224941,1.0142807873523352,1.0078215067152185,0.933387441769626,0.8788876297956079,0.850951931837743,0.777158781921292,0.7373993409892237,0.865141059829877,1.0619641204271577,1.1026121300562466,0.9808571282418833
1.1026121300562466,0.9808571282418833,0.9074407251277384,0.9555960298631436,0.934463062259442,0.7512504531207858,0.6335288596543415,0.741855833731791,0.9310825001759162,1.0653931010328856,1.1500101058591006,1.1877761258536377,1.1561687003469618,0.9305206132437236,0.39807881195599215,-0.013663891665858574,0.4795174464579419,1.6737058234646542,2.1542293567513777,1.3388331210150153,0.3329832680030814,0.12050250553825086,0.5400393197156236,1.0065718301244007,1.1673774407108248,1.085037783191614,1.0183833976753434,1.0141551211133757,0.9353446919415411,0.7912370427582445,0.7264802590800801,0.7839966068053239,0.8925146737470803,0.9992547941684579,1.06186682541946,1.0052299700051033,0.8669868699316912,0.8126800877424845,0.8756445968240186,0.9295114971929624,0.91282912956564,0.8694835546802013,0.8672082032945616,0.9328634257231236,0.9853706690788119,0.9464245317836697
0.8803300677730755,0.8646147811501566,0.878321973755434,0.9129880315766352,0.9894479920103962,1.0194736299658151,0.8833237957693381,0.6788740215912913,0.6496555910861379,0.8699422606877925,1.181214083171034,1.3607246879359045,1.2461616273444454,0.7932629540401526,0.214774815815583,0.05684360395520294,0.7500954226052614,1.801800968472292,2.013802899674613,1.1330877393513523,0.2795722349462562,0.2280162872717294,0.6278698046045593,0.9650610161162307,1.1341967079583466,1.1597458515443724,1.0462739773851886,0.91527452592828,0.8854455666130666,0.8680974250202507,0.7887510436067757,0.7589689623797343,0.8362408373821778,0.9384822014251578,1.014782252078733,1.057164179569591,1.0139198333958106,0.8833882852351412,0.7890894960518111,0.8216393685373498,0.9185052953218916,0.9566872973774476,0.9040531343795936,0.8361810675018787,0.8360253132749127,0.9240980395940549
0.5668513108844133,0.6696315336420515,0.3961601660133321,0.05959233468873681,0.10527963619124756,0.3836199998829921,0.38840798904333385,0.09950817567761075,0.02949801272153152,0.3808135640960214,0.7298735366199841,0.712808582966556,0.4554341710434842,0.15000706071561948,-0.20897153545166644,-0.35358317525870503,0.2113782235922237,1.093864730890729,1.1705160406913158,0.38657241499543127,-0.22407681454906198,-0.20739991212361347,0.13094283807225676,0.491096710044733,0.6580217964869066,0.526202906463009,0.27802403776943035,0.17834368343574458,0.2282650190037814,0.24762955460676034,0.24922310386948443,0.3801690065795519,0.5055379853557567,0.3660188353147561,0.13266299972651807,0.18223480118748225,0.4339349717722408,0.5090541283963339,0.34842356323148127,0.23765417239946215,0.2932990766567787,0.29701910868912773,0.16675751306857645,0.14665157764729575,0.37967318782109344,0.6328524710870528
0.5090541283963339,0.34842356323148127,0.23765417239946215,0.2932990766567787,0.29701910868912773,0.16675751306857645,0.14665157764729575,0.37967318782109344,0.6328524710870528,0.5940809065707233,0.32734729378237615,0.160955462213889,0.15298268001566226,0.12838903396577794,0.09810783061768141,0.16056602538014086,0.3882877886949858,0.8071538051139191,0.9924511937679821,0.4555805275348224,-0.33352049601031314,-0.4302942685509915,0.22956809392428934,0.8160319116554134,0.7184201921223294,0.24032359492895655,0.07439004505766007,0.33739655179942385,0.5578942558864766,0.4443676998291489,0.1909233427929346,0.04376133623594941,0.050152657514775406,0.24999095745702832,0.5750396124216067,0.6968129214886656,0.45777709213332823,0.18149038399381034,0.1717684110438074,0.2651667571825187,0.24680958305755807,0.2216482689255883,0.3179049315496241,0.47195701446302757,0.4858841715668198,0.2793258824553737
0.16675751306857645,0.14665157764729575,0.37967318782109344,0.6328524710870528,0.5940809065707233,0.32734729378237615,0.160955462213889,0.15298268001566226,0.12838903396577794,0.09810783061768141,0.16056602538014086,0.3882877886949858,0.8071538051139191,0.9924511937679821,0.4555805275348224,-0.33352049601031314,-0.4302942685509915,0.22956809392428934,0.8160319116554134,0.7184201921223294,0.24032359492895655,0.07439004505766007,0.33739655179942385,0.5578942558864766,0.4443676998291489,0.1909233427929346,0.04376133623594941,0.050152657514775406,0.24999095745702832,0.5750396124216067,0.6968129214886656,0.45777709213332823,0.18149038399381034,0.1717684110438074,0.2651667571825187,0.24680958305755807,0.2216482689255883,0.3179049315496241,0.47195701446302757,0.4858841715668198,0.2793258824553737,0.11372920363912342,0.2094939033776813,0.42475599731777414,0.5197471371854283,0.40663028319210565
0.25992705281977624,0.283192022224671,0.42554413934828444,0.49431204077665586,0.48939031335783734,0.41387617492660284,0.18941733580400522,-0.021157732220710757,0.010738596632535458,0.24891527611728004,0.5254382365059715,0.6981707917138436,0.6677534184852476,0.4387842696139966,0.09671080540281221,-0.23827487394591476,-0.25624365117121306,0.3400638927793639,1.0345178825972683,0.944140460360942,0.303707064078071,-0.028190102925502863,0.05081320366567366,0.1919608456679352,0.29510350448784656,0.4063750089471397,0.47722098332529794,0.40939399984609415,0.21305864761921925,0.11076054051684492,0.3020510391085809,0.5193192118913719,0.4590055629981662,0.3762714594590084,0.41308178121376105,0.25936693675235734,-0.04756758712799743,-0.08256582010122313,0.2376014541720476,0.6325194541189035,0.8569145774250077,0.7377313817052129,0.2844544445157394,-0.11378646019852076,-0.1284699531175543,0.08683269644199104
0.05081320366567366,0.1919608456679352,0.29510350448784656,0.4063750089471397,0.47722098332529794,0.40939399984609415,0.21305864761921925,0.11076054051684492,0.3020510391085809,0.5193192118913719,0.4590055629981662,0.3762714594590084,0.41308178121376105,0.25936693675235734,-0.04756758712799743,-0.08256582010122313,0.2376014541720476,0.6325194541189035,0.8569145774250077,0.7377313817052129,0.2844544445157394,-0.11378646019852076,-0.1284699531175543,0.08683269644199104,0.28401547330986676,0.43431655291132176,0.5653401233462485,0.6651652156191451,0.660436538636924,0.42169966666178954,-0.020182430843384114,-0.2981400457359401,-0.10755631907867996,0.3557394229063249,0.7744867855121049,0.9430385730893833,0.6179384239063552,0.04917204565045924,-0.11347729820933192,0.12547789316573887,0.2801292995702464,0.2933138014908909,0.4133491338571473,0.5653816771252762,0.5036580337715795,0.3331373754414405
0.6325194541189035,0.8569145774250077,0.7377313817052129,0.2844544445157394,-0.11378646019852076,-0.1284699531175543,0.08683269644199104,0.28401547330986676,0.43431655291132176,0.5653401233462485,0.6651652156191451,0.660436538636924,0.42169966666178954,-0.020182430843384114,-0.2981400457359401,-0.10755631907867996,0.3557394229063249,0.7744867855121049,0.9430385730893833,0.6179384239063552,0.04917204565045924,-0.11347729820933192,0.12547789316573887,0.2801292995702464,0.2933138014908909,0.4133491338571473,0.5653816771252762,0.5036580337715795,0.3331373754414405,0.22989458112639866,0.11929408985601953,0.04282859385551785,0.1819216416087176,0.4781816846512237,0.6782064631966613,0.5939854659028538,0.2711626225810425,0.044746956958898014,0.1315283284288108,0.2860574985056999,0.3175170041896103,0.3841877364991917,0.47948945807564014,0.41461054357491356,0.2556228980793167,0.21514092072206434
0.5939854659028538,0.2711626225810425,0.044746956958898014,0.1315283284288108,0.2860574985056999,0.3175170041896103,0.3841877364991917,0.47948945807564014,0.41461054357491356,0.2556228980793167,0.21514092072206434,0.3247201274934186,0.43756418469842756,0.3818827480601127,0.10048249695070346,-0.08432405798962453,0.2643737476377779,0.823892936462381,0.8646641756099396,0.355492934092311,-0.23347339828459013,-0.4069362928898962,0.2117948554147857,1.1171694532406184,1.1370224831346376,0.24080880107502683,-0.3891299915769816,-0.25367101378110496,0.1821119059143973,0.5749436024441893,0.8282960158194598,0.7659185576893626,0.36359304619424004,-0.06320573446767291,-0.21499218394913883,-0.010792966158036876,0.47881208584505175,0.8943953459226381,0.7974664282726072,0.2797719035042138,-0.10076088147350451,-0.06269111666271593,0.17484533298667515,0.3936533614079665,0.5681257519890837,0.6052616667654696
0.3841877364991917,0.47948945807564014,0.41461054357491356,0.2556228980793167,0.21514092072206434,0.3247201274934186,0.43756418469842756,0.3818827480601127,0.10048249695070346,-0.08432405798962453,0.2643737476377779,0.823892936462381,0.8646641756099396,0.355492934092311,-0.23347339828459013,-0.4069362928898962,0.2117948554147857,1.1171694532406184,1.1370224831346376,0.24080880107502683,-0.3891299915769816,-0.25367101378110496,0.1821119059143973,0.5749436024441893,0.8282960158194598,0.7659185576893626,0.36359304619424004,-0.06320573446767291,-0.21499218394913883,-0.010792966158036876,0.47881208584505175,0.8943953459226381,0.7974664282726072,0.2797719035042138,-0.10076088147350451,-0.06269111666271593,0.17484533298667515,0.3936533614079665,0.5681257519890837,0.6052616667654696,0.4320843738426281,0.2334972132555086,0.1547835581637217,0.09917911887735775,0.11473931437970475,0.3510470722672636
0.43756418469842756,0.3818827480601127,0.10048249695070346,-0.08432405798962453,0.2643737476377779,0.823892936462381,0.8646641756099396,0.355492934092311,-0.23347339828459013,-0.4069362928898962,0.2117948554147857,1.1171694532406184,1.1370224831346376,0.24080880107502683,-0.3891299915769816,-0.25367101378110496,0.1821119059143973,0.5749436024441893,0.8282960158194598,0.7659185576893626,0.36359304619424004,-0.06320573446767291,-0.21499218394913883,-0.010792966158036876,0.47881208584505175,0.8943953459226381,0.7974664282726072,0.2797719035042138,-0.10076088147350451,-0.06269111666271593,0.17484533298667515,0.3936533614079665,0.5681257519890837,0.6052616667654696,0.4320843738426281,0.2334972132555086,0.1547835581637217,0.09917911887735775,0.11473931437970475,0.3510470722672636,0.6070367458163101,0.5918231409712278,0.38372279387705016,0.17791357077106246,0.03802013014481484,0.10342330946714623
0.355492934092311,-0.23347339828459013,-0.4069362928898962,0.2117948554147857,1.1171694532406184,1.1370224831346376,0.24080880107502683,-0.3891299915769816,-0.25367101378110496,0.1821119059143973,0.5749436024441893,0.8282960158194598,0.7659185576893626,0.36359304619424004,-0.06320573446767291,-0.21499218394913883,-0.010792966158036876,0.47881208584505175,0.8943953459226381,0.7974664282726072,0.2797719035042138,-0.10076088147350451,-0.06269111666271593,0.17484533298667515,0.3936533614079665,0.5681257519890837,0.6052616667654696,0.4320843738426281,0.2334972132555086,0.1547835581637217,0.09917911887735775,0.11473931437970475,0.3510470722672636,0.6070367458163101,0.5918231409712278,0.38372279387705016,0.17791357077106246,0.03802013014481484,0.10342330946714623,0.4329403555991559,0.6837391963113826,0.49996237342262717,0.03571752437883862,-0.13918019619078092,0.3391031629623309,0.9394152717923764
0.4320843738426281,0.2334972132555086,0.1547835581637217,0.09917911887735775,0.11473931437970475,0.3510470722672636,0.6070367458163101,0.5918231409712278,0.38372279387705016,0.17791357077106246,0.03802013014481484,0.10342330946714623,0.4329403555991559,0.6837391963113826,0.49996237342262717,0.03571752437883862,-0.13918019619078092,0.3391031629623309,0.9394152717923764,0.7464291198137685,-0.052072412892026854,-0.348465401928025,0.17562690693030375,0.7530585689809294,0.7447082962604386,0.29785252889263975,-0.042804762787734305,0.02522385102194777,0.3246169010049224,0.5433777080000063,0.5696480160918416,0.4377133552306087,0.2628775776446772,0.1412288877023919,0.06534916680687333,0.11026056386612498,0.3897335214947302,0.7244422024823525,0.7354856651251407,0.3118876249085554,-0.16386796587573274,-0.16314489845450153,0.3228285474182119,0.7309811104448426,0.6891998560478781,0.4037119338038178
-0.16314489845450153,0.3228285474182119,0.7309811104448426,0.6891998560478781,0.4037119338038178,0.2023465422130673,0.12198486994055052,0.06618055623432448,0.09633397566122842,0.3060947639694588,0.6037073551184309,0.7883449952433921,0.6572103318522868,0.2129107204362154,-0.22404530978224352,-0.3257254039768728,0.07391673186785708,0.7878009536953534,1.0797763293226974,0.5999464763110993,0.023648013412851804,-0.07097305233909292,0.09161688271674756,0.15367301426447477,0.22050114135314663,0.540625095170922,0.8347279650723692,0.6538349822251102,0.18383001550555483,-0.07850919700596659,0.006682647167995048,0.25423169835617326,0.4344492214773886,0.4571509083451751,0.4060564692474989,0.42784453598287486,0.49525609637906637,0.3524006235824546,0.035131467381946,-0.02283195200741521,0.2679613874371886,0.5328257276627071,0.5551935350825736,0.42991606823920553,0.28022265166631455,0.1767279688488164
0.09633397566122842,0.3060947639694588,0.6037073551184309,0.7883449952433921,0.6572103318522868,0.2129107204362154,-0.22404530978224352,-0.3257254039768728,0.07391673186785708,0.7878009536953534,1.0797763293226974,0.5999464763110993,0.023648013412851804,-0.07097305233909292,0.09161688271674756,0.15367301426447477,0.22050114135314663,0.540625095170922,0.8347279650723692,0.6538349822251102,0.18383001550555483,-0.07850919700596659,0.006682647167995048,0.25423169835617326,0.4344492214773886,0.4571509083451751,0.4060564692474989,0.42784453598287486,0.49525609637906637,0.3524006235824546,0.035131467381946,-0.02283195200741521,0.2679613874371886,0.5328257276627071,0.5551935350825736,0.42991606823920553,0.28022265166631455,0.1767279688488164,0.18852626033923117,0.2774785380176107,0.3232704242329934,0.35890569567353203,0.46052901545346336,0.49297170941259605,0.30252815127461785,-0.014675409876445396
0.035131467381946,-0.02283195200741521,0.2679613874371886,0.5328257276627071,0.5551935350825736,0.42991606823920553,0.28022265166631455,0.1767279688488164,0.18852626033923117,0.2774785380176107,0.3232704242329934,0.35890569567353203,0.46052901545346336,0.49297170941259605,0.30252815127461785,-0.014675409876445396,-0.09896703685704195,0.38703870120031514,1.0408996947207259,0.9075241490968866,0.018026438172920045,-0.5310056901823721,-0.2159131623600446,0.5045337476964455,0.9724611251563814,0.8654166582585581,0.3938113600487605,0.010142826668389088,-0.10976336883939582,-0.05254674638601156,0.17874645702701164,0.5638220376644266,0.8319078502063875,0.749959216825093,0.3657620010111996,-0.06305205632226071,-0.18213007325027813,0.08083532277608091,0.41841745044114376,0.5889781758759188,0.5751804845588457,0.4531288235301082,0.3174466587384426,0.22726133567176482,0.17933749212113273,0.13566158638538903
0.28022265166631455,0.1767279688488164,0.18852626033923117,0.2774785380176107,0.3232704242329934,0.35890569567353203,0.46052901545346336,0.49297170941259605,0.30252815127461785,-0.014675409876445396,-0.09896703685704195,0.38703870120031514,1.0408996947207259,0.9075241490968866,0.018026438172920045,-0.5310056901823721,-0.2159131623600446,0.5045337476964455,0.9724611251563814,0.8654166582585581,0.3938113600487605,0.010142826668389088,-0.10976336883939582,-0.05254674638601156,0.17874645702701164,0.5638220376644266,0.8319078502063875,0.749959216825093,0.3657620010111996,-0.06305205632226071,-0.18213007325027813,0.08083532277608091,0.41841745044114376,0.5889781758759188,0.5751804845588457,0.4531288235301082,0.3174466587384426,0.22726133567176482,0.17933749212113273,0.13566158638538903,0.13147067470130958,0.24691799338865755,0.4386440208116964,0.6178592215932708,0.7145707296188293,0.5596423233691651
0.30252815127461785,-0.014675409876445396,-0.09896703685704195,0.38703870120031514,1.0408996947207259,0.9075241490968866,0.018026438172920045,-0.5310056901823721,-0.2159131623600446,0.5045337476964455,0.9724611251563814,0.8654166582585581,0.3938113600487605,0.010142826668389088,-0.10976336883939582,-0.05254674638601156,0.17874645702701164,0.5638220376644266,0.8319078502063875,0.749959216825093,0.3657620010111996,-0.06305205632226071,-0.18213007325027813,0.08083532277608091,0.41841745044114376,0.5889781758759188,0.5751804845588457,0.4531288235301082,0.3174466587384426,0.22726133567176482,0.17933749212113273,0.13566158638538903,0.13147067470130958,0.24691799338865755,0.4386440208116964,0.6178592215932708,0.7145707296188293,0.5596423233691651,0.12048156998657375,-0.2963549847811836,-0.32033091606607883,0.21541597817509095,0.9612247582565632,1.1378089139778433,0.5585847225570928,-0.06870515623840939
0.5889781758759188,0.5751804845588457,0.4531288235301082,0.3174466587384426,0.22726133567176482,0.17933749212113273,0.13566158638538903,0.13147067470130958,0.24691799338865755,0.4386440208116964,0.6178592215932708,0.7145707296188293,0.5596423233691651,0.12048156998657375,-0.2963549847811836,-0.32033091606607883,0.21541597817509095,0.9612247582565632,1.1378089139778433,0.5585847225570928,-0.06870515623840939,-0.19695788777549997,0.030639378459529076,0.30014066879495216,0.49050768565608116,0.5430334388284292,0.45166873482866704,0.3374098835529761,0.293172567048124,0.2897368693752317,0.2509311822307848,0.1906181563710517,0.23832237687651225,0.37498997851592625,0.40146660781353155,0.3004821150561703,0.2610197689484668,0.3565829543044285,0.4663678763037658,0.46843445139035866,0.3583828129058968,0.17357843457713684,-0.010460352561679806,0.02911682161297413,0.3915705924420777,0.7073349103440472
0.3565829543044285,0.4663678763037658,0.46843445139035866,0.3583828129058968,0.17357843457713684,-0.010460352561679806,0.02911682161297413,0.3915705924420777,0.7073349103440472,0.6303065410459585,0.3778573908562006,0.24841858003124534,0.19195686441646242,0.1424836276351647,0.13018053688099268,0.1038111227813231,0.1907754056560661,0.6459088404039806,1.0350041979562148,0.6518957197517533,-0.0913833404935599,-0.3234449195511951,-0.04794738485825595,0.35283481495111824,0.6784367829083421,0.7248701332573377,0.48806647884633414,0.2548875420769661,0.14648726328205816,0.043706852335063426,0.01793263110889423,0.2778120051137345,0.6553026904094459,0.7297575939767884,0.4548766104092049,0.1612609511163926,0.06845000591894884,0.11934049508175734,0.1935921735978493,0.286577180311675,0.4410470520169577,0.620448604012137,0.6493483451349582,0.375629112138111,0.013548401994059017,-0.04383727267566512
0.286577180311675,0.4410470520169577,0.620448604012137,0.6493483451349582,0.375629112138111,0.013548401994059017,-0.04383727267566512,0.17347340797130512,0.3106912855704574,0.3194396972478637,0.4231656559230432,0.6275666977622466,0.717816025746919,0.5138721149153065,0.044532972620976025,-0.3572949016111553,-0.2830194894936008,0.36376550783803707,1.0653253817775639,1.007769042222283,0.27050128067701945,-0.16879171033496743,0.04177718138349801,0.40445016254714583,0.523410344906137,0.364923780971843,0.13696005386316218,0.14119336532936722,0.39392227945525704,0.5228646559290334,0.35824016207693987,0.2543124416428896,0.3830474573578993,0.4032467516530541,0.19854489978543174,0.08329685359460798,0.18898020761057732,0.3491429194864706,0.45279433791893314,0.4932320005802306,0.4630099969472356,0.3737251306152635,0.2368262839690556,0.09338792909218815,0.08231262640832601,0.2923361944980455
0.2368262839690556,0.09338792909218815,0.08231262640832601,0.2923361944980455,0.5694320287426513,0.6242922113868026,0.3892522946302652,0.10737222899259038,0.014537739243999287,0.1497148682776393,0.41420913748035404,0.6138489952502856,0.6123169803430282,0.44747508638047073,0.140626540653568,-0.20961502392430142,-0.14517515961923477,0.5176479664776731,1.0239374601599232,0.7273510798445229,0.11888710158567989,-0.1028723416372099,0.06929094362671939,0.3257364497125573,0.45894570916403493,0.43220032357581395,0.3517889751626532,0.3500322267187927,0.3905812045107458,0.29079004257531954,0.10965438010116829,0.16501338682502897,0.4606887002395634,0.6012008161231296,0.408786091633458,0.1461375117954236,0.10000414919704709,0.25502264025250787,0.3714203003638594,0.329464235596491,0.31294991789574933,0.4690606463238461,0.5603305506611271,0.3041937088219756,-0.049269743069862496,0.0304041263695721
0.5603305506611271,0.3041937088219756,-0.049269743069862496,0.0304041263695721,0.5019321321111794,0.7346736334844606,0.45111918757014374,0.08899730211534715,0.04969827218751366,0.21584590102698736,0.3865999127060396,0.516676487159861,0.5255006205672315,0.4030477008872363,0.23135443916518145,0.00251075720569743,-0.08959828087491792,0.32231061828644547,0.8812075997760357,0.7848505068354616,0.18034762693695972,-0.15983352158930353,0.0134149162670264,0.46070893428411674,0.7264971090564354,0.47255826020620506,0.013749269527997196,-0.026679474488272653,0.3748051629064473,0.6365559383398564,0.4876690692710404,0.29107923578255457,0.2933727164882236,0.2826021435428365,0.15071604808331257,0.0806781626471213,0.21307181214996257,0.4954735700508177,0.673064644152699,0.5176307420348474,0.18935100248175177,0.060218929574564206,0.17881542419986898,0.3228697056931201,0.4144293981122811,0.438491113334086
0.17881542419986898,0.3228697056931201,0.4144293981122811,0.438491113334086,0.3539250869957718,0.26128424779190473,0.27492400719415766,0.3493531312464341,0.32642550209750837,0.16605831056749384,0.1460050594761655,0.43074842083308934,0.6820388686761686,0.571633479014943,0.17970753503601267,-0.19923170845285768,-0.18533631897401695,0.4386848525638879,1.1321329026677276,0.9339877648992336,-0.010995925489911795,-0.49289203140081717,-0.04936457320092125,0.6233243938671323,0.8352398689104271,0.5697305665265961,0.21253519897058715,0.07090988815414588,0.13827164353749086,0.2365551524784879,0.30917830542411506,0.40780178799307865,0.5170029651338395,0.5234297157710042,0.3426198154008322,0.1055943345883584,0.04923025296006367,0.21043875650856464,0.4210468426037345,0.4956013222843809,0.38658749741410303,0.28192405058698644,0.3597297089814574,0.42866911437233957,0.2429385951665224,0.026874345637521724
0.27492400719415766,0.3493531312464341,0.32642550209750837,0.16605831056749384,0.1460050594761655,0.43074842083308934,0.6820388686761686,0.571633479014943,0.17970753503601267,-0.19923170845285768,-0.18533631897401695,0.4386848525638879,1.1321329026677276,0.9339877648992336,-0.010995925489911795,-0.49289203140081717,-0.04936457320092125,0.6233243938671323,0.8352398689104271,0.5697305665265961,0.21253519897058715,0.07090988815414588,0.13827164353749086,0.2365551524784879,0.30917830542411506,0.40780178799307865,0.5170029651338395,0.5234297157710042,0.3426198154008322,0.1055943345883584,0.04923025296006367,0.21043875650856464,0.4210468426037345,0.4956013222843809,0.38658749741410303,0.28192405058698644,0.3597297089814574,0.42866911437233957,0.2429385951665224,0.026874345637521724,0.13417377835412808,0.4522762830968846,0.6261123762294764,0.5300523934630217,0.26297475383843405,0.046446450992879806
0.37548419719277115,0.6062592564485759,0.5609299212932277,0.3307028850521862,0.17767206047188056,0.16748526289127894,0.1997498779167538,0.24552606056017373,0.33835094665281384,0.457230246301087,0.5251514354936275,0.4802005385593215,0.33517081722918407,0.15752623981965566,0.023788493263107502,0.02019780365003962,0.22345820592363275,0.5944469904324731,0.8236443874020554,0.5999362884803062,0.14700954770883878,-0.047774635824952186,0.08493657213941419,0.2697909918282116,0.3517058672527674,0.3914914176556588,0.4650801929751067,0.5258459456820306,0.42354452428614686,0.15154395942938134,0.061401776596328825,0.3538662872379381,0.6052455608244542,0.3596424202814661,-0.17358588430360333,-0.22569303196141724,0.5685997873963842,1.3013523244170866,0.8792435369514684,-0.21944834598030172,-0.6204937574117074,0.01043134948285418,0.7640918549461301,0.8470294079185895,0.46861789717487246,0.23221223439861866
3.03604962859544,2.9584755513649195,2.6942721187544287,2.567014553521096,2.642784502451854,2.7674110144714286,2.7674028589927624,2.62429532449448,2.4821533733251435,2.5879388593556465,2.9572812781025455,3.1450808008228517,2.8938427353323872,2.548587888280065,2.3403913352670056,2.204574194639398,2.443692854961302,3.17653316144292,3.557257331937851,3.0308297393837407,2.302313737549521,2.1250505167399476,2.4322679433357606,2.832843449878348,3.043192193728077,2.9518840033488822,2.6753846605070226,2.5046838361718935,2.5961712514337223,2.789609134183975,2.868628690254628,2.7932877708235577,2.627471978148823,2.506760307138055,2.5775974417532432,2.7898889937518314,2.925605257175897,2.839666401657319,2.610763824776866,2.5153215552951065,2.688423758334921,2.8785232839336112,2.8534656033723156,2.7257223533705335,2.6460494402717822,2.6123227066007035
2.8785232839336112,2.8534656033723156,2.7257223533705335,2.6460494402717822,2.6123227066007035,2.5972269065175064,2.597782235774839,2.6415491679099863,2.7775264815767735,2.9873506919118746,3.1077980255715314,2.9400401794855204,2.5473268846839097,2.2211223206614146,2.1163067025225737,2.3010493808120773,2.8438936156372288,3.4940527579454326,3.709006851974852,3.1359675290183686,2.121208965043466,1.6271789100291947,2.0831424010513357,2.8204971362350144,3.1792107804130976,3.1957811245982777,3.0099772410185683,2.6567109107846005,2.4017739310532074,2.5710524597509092,3.005003376496349,3.0811810802441064,2.523818610672752,1.8842232482912151,1.9560475538906026,2.8536378127253847,3.8073838318022957,3.9073802741180153,3.0126907130378706,1.9027717332624596,1.5076119787548894,2.0325137990700757,2.897920187353022,3.4214264641271552,3.4120203445043003,3.055532288767101
3.1359675290183686,2.121208965043466,1.6271789100291947,2.0831424010513357,2.8204971362350144,3.1792107804130976,3.1957811245982777,3.0099772410185683,2.6567109107846005,2.4017739310532074,2.5710524597509092,3.005003376496349,3.0811810802441064,2.523818610672752,1.8842232482912151,1.9560475538906026,2.8536378127253847,3.8073838318022957,3.9073802741180153,3.0126907130378706,1.9027717332624596,1.5076119787548894,2.0325137990700757,2.897920187353022,3.4214264641271552,3.4120203445043003,3.055532288767101,2.5579870063113663,2.18897088185192,2.2501212709556455,2.695576340086937,3.0829215597015267,3.0466554504210834,2.6345486123763253,2.2377487034811283,2.3539612229714693,3.0228544958176884,3.4360217373922444,2.99636400409982,2.345786699051775,2.2223722444174423,2.44925451941257,2.684842075736457,2.8779068529155536,3.005177384011455,2.993982495561368
2.531311211213169,2.634104142880042,2.8436297299930122,2.957512766077509,2.8739427886117404,2.66105675149645,2.472058396530428,2.446022424978319,2.6202877023552524,2.8683204523578913,3.0055052677929,2.94045883475879,2.7387260723030318,2.5834142668947053,2.516967097521954,2.3764494133011493,2.3261872530326753,2.830617159221506,3.5127869914443037,3.356023895092025,2.5110139348011296,2.0623251979670556,2.277514686989955,2.682897955467566,2.946477489888294,2.942201238682223,2.7723186996902416,2.72434759590097,2.8371122431475366,2.8072790028216894,2.4748322355208217,2.2286149440448426,2.5440078633634813,3.125022641656364,3.2396865210688004,2.795003700288926,2.3623001445083776,2.3759706650981767,2.6956408355318016,2.89859992125751,2.8668059586843504,2.7671572621536176,2.6519457266477473,2.5667385448997138,2.642730462825977,2.7963411739877815
2.7671572621536176,2.6519457266477473,2.5667385448997138,2.642730462825977,2.7963411739877815,2.8010053980492513,2.676332503451435,2.618177552099438,2.6523543188558976,2.713325351488694,2.830179851227636,2.957353940535097,2.944848636874907,2.7109016645451094,2.2681966176247705,1.8880612646169193,2.175550199673907,3.2922838061722626,4.1982277807412585,3.7147569838779875,2.2433400607331975,1.2895859750762004,1.6138241012671064,2.6737122999500595,3.492438835053903,3.5855411930056085,3.1315943194003966,2.597850174038731,2.329177113730524,2.339970959705409,2.473208961466127,2.640454691269082,2.787221237418487,2.8749960069563585,2.923898020090244,2.9057409505541334,2.760286451971898,2.543681628024503,2.4309949523067695,2.5627643013138166,2.834291710084032,2.9429436592560605,2.787402416216951,2.6143156492733852,2.6330602194362958,2.7338825798379593
2.618177552099438,2.6523543188558976,2.713325351488694,2.830179851227636,2.957353940535097,2.944848636874907,2.7109016645451094,2.2681966176247705,1.8880612646169193,2.175550199673907,3.2922838061722626,4.1982277807412585,3.7147569838779875,2.2433400607331975,1.2895859750762004,1.6138241012671064,2.6737122999500595,3.492438835053903,3.5855411930056085,3.1315943194003966,2.597850174038731,2.329177113730524,2.339970959705409,2.473208961466127,2.640454691269082,2.787221237418487,2.8749960069563585,2.923898020090244,2.9057409505541334,2.760286451971898,2.543681628024503,2.4309949523067695,2.5627643013138166,2.834291710084032,2.9429436592560605,2.787402416216951,2.6143156492733852,2.6330602194362958,2.7338825798379593,2.752294662778252,2.72664528685397,2.7079182102686867,2.648834493594182,2.563567104145313,2.595730781214018,2.853988358974174
2.9429436592560605,2.787402416216951,2.6143156492733852,2.6330602194362958,2.7338825798379593,2.752294662778252,2.72664528685397,2.7079182102686867,2.648834493594182,2.563567104145313,2.595730781214018,2.853988358974174,3.1150535586241013,2.999245029219959,2.5174411304382556,2.0693721825656177,2.114283988732578,2.833848768657353,3.596003337597594,3.4294612289203905,2.5423294560372254,2.084909999727246,2.3615588506834273,2.701352935576321,2.753669373264636,2.780595634543363,2.9147987463324085,2.936717835640228,2.7683313116496295,2.5891370127231816,2.5102896008732993,2.5563850997412,2.70902261566995,2.8002910981737337,2.743908348223059,2.7236938002430726,2.812183270092082,2.7994317740295025,2.6595644708845003,2.637035085718034,2.7105718082421006,2.6433255140884,2.559222233181162,2.7045972125216213,2.9046677380408483,2.9054915268588877
2.9217022938147235,3.095774224470186,2.889659349761396,2.606321164132862,2.555552377643312,2.6766821773972227,2.728427131622729,2.6126517568738574,2.4854012668553085,2.5877271667536954,2.9155691806802984,3.1472135867892277,3.0288260762121184,2.6924750524201433,2.3556282148064307,2.09612721608949,2.2114334452005857,2.96670080429531,3.66589842511991,3.3407849945379895,2.438558790552112,2.078445263095597,2.324525436038413,2.641868203165082,2.8595916042355536,3.0038439163621313,3.010999530598904,2.811459216609503,2.5120716400914245,2.3820884850770616,2.557863970942371,2.8054458339032493,2.81040441512514,2.703901812041532,2.7867543570462967,2.9211582820375925,2.8222497032271487,2.578497498934007,2.468285892898601,2.5464165224687916,2.6883760636716003,2.8334128299162886,2.9191613144033597,2.8539565745598146,2.684892076744954,2.5480541063585673
2.6883760636716003,2.8334128299162886,2.9191613144033597,2.8539565745598146,2.684892076744954,2.5480541063585673,2.538481975418288,2.6794064607591754,2.8213122349815287,2.7850217795929986,2.671944190857196,2.6684048922729326,2.770296895834337,2.8723344420222205,2.774106357255468,2.387286975422837,2.2237633589345003,2.8136982113717495,3.4554092508106664,3.1286752459989757,2.3657816737093924,2.2369390380858425,2.6038771857813865,2.8157685545464552,2.763664441415266,2.7234119291126793,2.824478745739494,2.8666976838514073,2.7013457457220857,2.5004788582054225,2.4977051290850882,2.696511345826235,2.888853825194947,2.898125791068237,2.7524166097379936,2.6160512622848264,2.6117421229170263,2.6994741047151494,2.728824047713589,2.669352825373459,2.6491506724489793,2.7317401072275453,2.8305327365642547,2.8184421062002794,2.7174889754134397,2.674628311885364
2.7999393425123973,2.8170116509784067,2.6980051171219417,2.637598282072137,2.7303416757783885,2.8226749668616735,2.7771096430886715,2.6291105542153153,2.487748064836767,2.5444932415652954,2.8366305787728066,3.041611690885898,2.9399912460107633,2.6958988884961754,2.44323328258631,2.220451836227288,2.391165932109951,3.1122945970298654,3.516563061159511,2.9272114298699314,2.1823307147774758,2.2204063719991245,2.689846924396471,2.911592496906506,2.83706504060031,2.735535091603741,2.7369983748459332,2.752403315999162,2.6751164782328374,2.5811466118107367,2.607729371588444,2.7342891088038437,2.8332977250542597,2.8355041362657634,2.758142595780468,2.6618639666047854,2.5896674848471504,2.5691410504294083,2.642109135781535,2.7663259789682,2.8367212570883966,2.839053118252317,2.7974334962492082,2.702655150355623,2.59804790125776,2.5530142370959736
2.730950672710183,2.7385141478400956,2.744793579826007,2.7296699395905355,2.7492100181863197,2.7469588527565336,2.626631921074126,2.5375488768246037,2.6346568973166926,2.7716362075598324,2.8066600022088415,2.8170247435517117,2.8598828628760673,2.8462810519770034,2.6037145303066085,2.1934752641078488,2.2082425859801016,2.969393321939669,3.595453388407752,3.1889867732259707,2.334843131306346,2.049758833866006,2.387531102146974,2.845991338385594,3.060554505441252,2.977501583073358,2.7375713335833884,2.5004739847311983,2.468328189467181,2.6792917659902353,2.8590362049286204,2.8412319906377275,2.749406064985472,2.6980573967158468,2.668619702801926,2.6268095544167815,2.5995457207125128,2.6412474551605745,2.763925816092338,2.8434038180134027,2.7607511176901953,2.6646690257817913,2.7187916115836592,2.805355415389004,2.7637363631957976,2.6139374095809913
-0.13888293173876134,-0.28327642556902993,-0.3444571686429808,-0.2803319687831044,-0.1710719116198826,-0.1270479936967524,-0.20976505096471967,-0.35850761709038426,-0.42494973597395036,-0.2753364615624069,0.03576735021808519,0.19974735373737548,0.019870193447510454,-0.34333597327621057,-0.6498639831193187,-0.727817105170182,-0.3575161634968237,0.2966043229438024,0.4402345593599473,-0.1547147846566141,-0.6775959324064342,-0.6500584463434795,-0.3423098057978513,-0.037911807455373064,0.1007908383784519,0.0034837679236155994,-0.21902103575885956,-0.391230058680254,-0.40707313962162095,-0.32048223657648023,-0.22942546053006066,-0.11580476319635834,-0.022945386918143525,-0.07355992641146417,-0.21111142991109683,-0.29035660811478725,-0.3003554471525029,-0.3175394656270839,-0.36666996417246567,-0.3278375584322568,-0.10267711034405108,0.1020452322751772,0.0008639949424699006,-0.29739620043083953,-0.43251507600215083,-0.326409921711588
0.1020452322751772,0.0008639949424699006,-0.29739620043083953,-0.43251507600215083,-0.326409921711588,-0.2232436711058911,-0.2531071685150509,-0.2818527087234766,-0.21333163309740166,-0.11929231299044657,-0.05888107442203413,-0.0039664993640492335,0.010254324323277886,-0.2080609368339374,-0.6727027289430887,-0.9234989600102452,-0.4653695394009887,0.38940400629540983,0.6068221830002898,-0.06100662352971731,-0.6653306258804773,-0.6187759980868782,-0.27824159261989556,-0.10430957133126995,-0.14219832881749658,-0.17944135277640252,-0.16206799740993383,-0.1919351203044583,-0.2465979261010192,-0.24552118337704285,-0.18963129118217048,-0.1523504566133625,-0.20944086813604385,-0.30291633837933685,-0.3179144709281463,-0.2623492460519956,-0.1698473158490311,-0.06837143327582774,-0.0816823971935834,-0.2466572205178651,-0.38818612195640056,-0.33501816636898424,-0.13959218736841045,-0.05170363194850382,-0.16180549382813417,-0.2630841701545097
-0.38818612195640056,-0.33501816636898424,-0.13959218736841045,-0.05170363194850382,-0.16180549382813417,-0.2630841701545097,-0.2736553224406542,-0.32738220981254307,-0.3903043320004741,-0.30240796812283205,-0.08050908155008411,0.11024907628322503,0.13010529881812732,-0.05438284755910827,-0.4244294472711463,-0.8937674784415615,-0.9792307022724104,-0.1773600831455397,0.798231220212779,0.6630965042748419,-0.32854669113015234,-0.8755334869227474,-0.6514193276876541,-0.2627943378414216,-0.08479419625532598,-0.04393576675848086,-0.0731122475249498,-0.19832257983405635,-0.3044779629637546,-0.2526944851400261,-0.15948502078961352,-0.22420715593957322,-0.33511641632772377,-0.2406632282966877,-0.0539989201385011,-0.07771355540995924,-0.2754538969375898,-0.39779727799078274,-0.3497087172609973,-0.19233049127394797,-0.06921615249297831,-0.0921528459229887,-0.19087365689557861,-0.23871590169235887,-0.2401081249895562,-0.25850015794557446
-0.0921528459229887,-0.19087365689557861,-0.23871590169235887,-0.2401081249895562,-0.25850015794557446,-0.28696739926165404,-0.2749711691356447,-0.24601128472268893,-0.2532259135050564,-0.2170977661805161,-0.06625237898036739,0.04499991906818913,-0.04856174814636213,-0.2802440414146714,-0.5206119482999394,-0.6853037371350217,-0.5258934288458441,0.10098533361102752,0.5750633406843176,0.1955047330556221,-0.5396042921535097,-0.7339750366435627,-0.45543694042865057,-0.20237865634673322,-0.10521411408050421,-0.0754393353672958,-0.0695643585639529,-0.1355012398067509,-0.26275367228486995,-0.34287775558605266,-0.3375597304232646,-0.24969523197456972,-0.10135783156281447,-0.044318146285454864,-0.1776718917932689,-0.34965218299159656,-0.3687076354087095,-0.253446150588394,-0.15822040312777536,-0.13992025845295258,-0.14511267229888997,-0.16045683496653834,-0.19493807066617957,-0.2546333600948238,-0.34503113893679993,-0.3530612517202217
-0.12336120419612304,-0.15994362619027364,-0.19696534930220866,-0.15086333793150858,-0.12516176027994125,-0.22995598376693066,-0.35950459870201334,-0.3885095456217846,-0.348475312242982,-0.2543603031067271,-0.04893197864995026,0.19519791014409885,0.18523150233025532,-0.2524791722911748,-0.8215594343270722,-0.9878906531008589,-0.4258051823774,0.5025759441343108,0.7489495395096009,-0.02197278929572044,-0.7810306045041864,-0.7692498339674961,-0.37548060745056344,-0.11810515576242492,-0.0519079028269865,-0.09021275136533344,-0.15894078208640677,-0.1777091542963794,-0.18727543421839618,-0.253708379054318,-0.294821672544285,-0.23785044883346304,-0.16890891021081184,-0.202847189237789,-0.3055464227785303,-0.3279042531461689,-0.19164214859561518,-0.03328412322097393,-0.09419085785039183,-0.3278953164426589,-0.3788589862920915,-0.1628951012740792,-0.031240846480542123,-0.18109848689623162,-0.3758199650026664,-0.34977089179319354
-0.3788589862920915,-0.1628951012740792,-0.031240846480542123,-0.18109848689623162,-0.3758199650026664,-0.34977089179319354,-0.1785497628213543,-0.13898384044084644,-0.255595393307619,-0.2793883224340322,-0.13671239627914797,0.014773477178964524,0.026379836187488875,-0.2250833567515818,-0.7162630275815149,-0.9651116114902696,-0.36284376473603513,0.6767507006052661,0.8350374864756192,-0.12045605597352915,-0.9706515004257685,-0.9570336792511667,-0.44545103378594214,0.004691131205150023,0.16103899157728696,0.08372735200816497,-0.06584559717182875,-0.2655329405249511,-0.4937049050236705,-0.5416871694221288,-0.32155322290108584,-0.027884478974751326,0.1200099452207791,0.015610641804751357,-0.28281747614568975,-0.4945286686060737,-0.41043221769709093,-0.21665927012381409,-0.16435919399873183,-0.166131865918745,-0.08916400896727815,-0.07128115371469272,-0.22409037854682906,-0.3692065185909656,-0.3263304514974751,-0.19715882815354557
-0.08916400896727815,-0.07128115371469272,-0.22409037854682906,-0.3692065185909656,-0.3263304514974751,-0.19715882815354557,-0.16905208022759982,-0.24298126911123058,-0.30024789826129117,-0.27331691649667145,-0.14209013942551574,0.05278815546254566,0.11030738476426959,-0.1587510254081883,-0.6421333132549577,-0.9169260702401966,-0.49740861094033534,0.3892906244328588,0.6170297106753759,-0.1288647661232819,-0.7349540990179413,-0.5740489961626178,-0.19338359916159942,-0.09259976789378199,-0.18399811273055489,-0.22067581948120557,-0.1532480833474577,-0.11858161399976984,-0.2247927480731809,-0.33352801300171797,-0.24816414247452043,-0.10407420106294843,-0.14022862811191508,-0.29137315239782624,-0.369662580595721,-0.28378732397091994,-0.08937675702539612,-0.03012119594032596,-0.2063959695970629,-0.37711095291911845,-0.3468982389421239,-0.18410965042100516,-0.059783114739488594,-0.09975328138833607,-0.2511620976917768,-0.3419655646716857
-0.37711095291911845,-0.3468982389421239,-0.18410965042100516,-0.059783114739488594,-0.09975328138833607,-0.2511620976917768,-0.3419655646716857,-0.3413149308632756,-0.3011373671510126,-0.1826611134276827,-0.0223973913012391,0.01346046814977088,-0.12461550930518664,-0.3106365485463801,-0.47217651008603984,-0.6177241403415002,-0.48825516715223133,0.14624035756855364,0.6180747023122267,0.14756522125495314,-0.6811575467487825,-0.8741945411710778,-0.5042232036562334,-0.10559117163303719,0.12429591841872428,0.12118886818361721,-0.11520354950315417,-0.3424447743990473,-0.3599385037372997,-0.31564941127750556,-0.3344745587986907,-0.278243369147956,-0.12944617687530638,-0.04375867833569116,-0.07841317009136556,-0.193660346496972,-0.2989391554810341,-0.33924696999234943,-0.3512976451817216,-0.3022983641099299,-0.14270572514562316,-0.013987801995208285,-0.06477506481020819,-0.2103688555193295,-0.296532203690991,-0.29710692768801905
-0.3022983641099299,-0.14270572514562316,-0.013987801995208285,-0.06477506481020819,-0.2103688555193295,-0.296532203690991,-0.29710692768801905,-0.29844439163952363,-0.36688329124632485,-0.36935488652727966,-0.10932801759009679,0.2257798166412791,0.17957914978630982,-0.2644831449550924,-0.6717616790649706,-0.76556191505271,-0.4517503785516047,0.16111175067864053,0.4566331123362629,0.06920508523741586,-0.4429440428674134,-0.577228276605083,-0.48425433889545566,-0.34399494473734593,-0.1685164441149084,-0.022915767857036196,0.00976466481140716,-0.10070682305860981,-0.26219770281046284,-0.3208055150583452,-0.2952270457316948,-0.28706402495035765,-0.25105311657685975,-0.1593055963811082,-0.14832638859928687,-0.2332900567703624,-0.23509300520462562,-0.13774156107791824,-0.10916094071324564,-0.2194888047970653,-0.3730902508011892,-0.37764178542034393,-0.15323027923816954,0.03709610059727009,-0.11503586244065953,-0.4555392038115904
-0.10916094071324564,-0.2194888047970653,-0.3730902508011892,-0.37764178542034393,-0.15323027923816954,0.03709610059727009,-0.11503586244065953,-0.4555392038115904,-0.5484370681140316,-0.26587615549565763,0.08704240620590795,0.17959297412228908,0.00041216990078218885,-0.31230502094369683,-0.7066089403637028,-0.9339769570383032,-0.47653751836029196,0.5269669105310779,0.8894514495889054,0.06212408763988875,-0.8541461642989594,-0.9058224278203021,-0.46876700020906537,-0.13586061260106996,0.014151847017325081,0.02523729672323674,-0.09517367074180193,-0.22054690527633333,-0.23722730776769885,-0.24146648123604633,-0.33611261573013673,-0.386646742978193,-0.2686880196257609,-0.10354462452110494,-0.035310404611152243,-0.08174259673501658,-0.22482803183618494,-0.38675854542973265,-0.41037400521686096,-0.25115717920764963,-0.07743868647576131,-0.051717614865173615,-0.13560567257398662,-0.21849505021610446,-0.28845492450693566,-0.3542670272734807
-0.25115717920764963,-0.07743868647576131,-0.051717614865173615,-0.13560567257398662,-0.21849505021610446,-0.28845492450693566,-0.3542670272734807,-0.3736545120271192,-0.32345462762472055,-0.1748285614462444,0.0634172251059528,0.18043124638075606,-0.012831566864558774,-0.3991003461714936,-0.7845644793979704,-0.9167643135044237,-0.37278590688366414,0.5848666106153915,0.772450794647326,-0.10775952835893121,-0.8711985528895888,-0.7709187243883331,-0.29268124180308946,-0.02282506394979958,-0.004201425039163292,-0.0803006464938946,-0.17978990410439363,-0.2618880043745752,-0.31626452512056547,-0.3353252917599209,-0.26082524483655845,-0.1325048096396848,-0.10438181308029129,-0.20201732072815007,-0.27785729687562655,-0.2594371861536587,-0.23350394710813344,-0.23548890921352608,-0.2011280202541411,-0.14470422115603487,-0.14394838879628546,-0.19463275192063778,-0.2338658593986842,-0.24127467710836062,-0.24327703040622667,-0.27056863620900234
-0.2011280202541411,-0.14470422115603487,-0.14394838879628546,-0.19463275192063778,-0.2338658593986842,-0.24127467710836062,-0.24327703040622667,-0.27056863620900234,-0.3234050304172252,-0.3308541122166254,-0.19973385070825564,0.042057197807015737,0.18066938636210028,-0.008965247153911893,-0.4901127796027457,-0.9249491851500868,-0.7995049234770031,0.05588711428054949,0.7499683209204053,0.3412303328971404,-0.5468508042664553,-0.8192009693324802,-0.5246107785881495,-0.21047399623239255,-0.04462588016280403,0.0058633635290807895,-0.05527885951014831,-0.16692607643372984,-0.24803113155459477,-0.3258343484386919,-0.41791913309532147,-0.38690635178174354,-0.1510220495596437,0.05957740928943607,0.0005553845972003923,-0.20622525572597783,-0.333856258457289,-0.3871424005188499,-0.41059458884519695,-0.3005449312618816,-0.0677872152553715,0.04471521527004165,-0.06065432141621463,-0.22447927320094757,-0.3302182091278384,-0.3542854268413128
-0.0677872152553715,0.04471521527004165,-0.06065432141621463,-0.22447927320094757,-0.3302182091278384,-0.3542854268413128,-0.3204706238084223,-0.3169356631044957,-0.33105607185280983,-0.20463192047417772,0.07595540431190295,0.22835064135363692,0.03376160069026163,-0.38477038099509686,-0.8171737077090289,-0.9658095990063145,-0.3757022645305973,0.6050787490488563,0.7363145851121478,-0.13432613727849163,-0.7958038710950145,-0.6963979676253786,-0.3330464566230232,-0.10858504941953662,-0.013525511680979985,-0.018350148150737412,-0.165423466833845,-0.3408422140518433,-0.37635173687497814,-0.2860028743699585,-0.169855747598622,-0.10594529441098524,-0.13622746578545966,-0.21451676214241214,-0.2631470470479512,-0.27611875453113044,-0.275343563324736,-0.2514539692168376,-0.20436987661264927,-0.14793653618820943,-0.10866472156070515,-0.1420658671502493,-0.2344219389706095,-0.27829952174130257,-0.2723676947707965,-0.32278280877660603
-0.20436987661264927,-0.14793653618820943,-0.10866472156070515,-0.1420658671502493,-0.2344219389706095,-0.27829952174130257,-0.2723676947707965,-0.32278280877660603,-0.36822046989965884,-0.2466551375952032,-0.010079987472037852,0.1319420889049172,0.043892601807714815,-0.2729949492336477,-0.6437314848313264,-0.7606200622878543,-0.3744624462584561,0.30182276247450224,0.46288730298718267,-0.16181943020346568,-0.7229790230564339,-0.6634269038774518,-0.32238884922227734,-0.03454762214264698,0.1171299458230462,0.05387690013583026,-0.19264592296265987,-0.42635365118074325,-0.4808157618551309,-0.3413817195819029,-0.1333830501662862,-0.02548053003044927,-0.07000405966038359,-0.17828934180983902,-0.2595611760116969,-0.31469316800674413,-0.3602331565131395,-0.3222205225341748,-0.1699900095027288,-0.05962358678613966,-0.10181844319755187,-0.18214645360104412,-0.2189714258253846,-0.276397166894592,-0.324679916868735,-0.29895703723758466
-0.3222205225341748,-0.1699900095027288,-0.05962358678613966,-0.10181844319755187,-0.18214645360104412,-0.2189714258253846,-0.276397166894592,-0.324679916868735,-0.29895703723758466,-0.27387423538031774,-0.24388601270917,-0.08340415050250685,0.11018665550928321,0.02118941923080478,-0.4235424761919835,-0.8335940684986243,-0.66809414215031,0.11470313473330085,0.6505624193124911,0.1941650681754747,-0.6191889400614493,-0.7877300574139863,-0.3952775126023319,-0.0987808355258737,-0.10838994377493823,-0.15213486790556774,-0.07511352120389099,-0.05022399261985283,-0.2026118243703996,-0.41634167044964715,-0.4884805471181217,-0.33033025258543663,-0.06384346961633076,0.07513363847309729,-0.04664759321815534,-0.3159919629723227,-0.4740775014175083,-0.36973266790239523,-0.11408542479940595,-0.004106611366990712,-0.17545499185551422,-0.3626895877293759,-0.27755579779678236,-0.07563370309364718,-0.09848946253654042,-0.3559494957870418
-0.36973266790239523,-0.11408542479940595,-0.004106611366990712,-0.17545499185551422,-0.3626895877293759,-0.27755579779678236,-0.07563370309364718,-0.09848946253654042,-0.3559494957870418,-0.5183802474115052,-0.3296704991009074,0.06347112328505078,0.26659510153343424,0.06349298069449219,-0.4512671973225518,-0.9394576395300812,-0.8566272697162416,-0.00647193441693672,0.7494309754636366,0.4468040254496065,-0.4384785191086942,-0.8377347179821726,-0.6278416912012046,-0.2590162269639675,-0.013362435462855288,0.014497765616208094,-0.10723958408997437,-0.2094884303342668,-0.22884184997307716,-0.2605758303813868,-0.34132530446488485,-0.32336810768963997,-0.1503546186155737,-0.03727963152203578,-0.13307857594024936,-0.308018707607241,-0.3786842463066576,-0.29259921483590734,-0.1532818314447179,-0.10778435277057183,-0.16107276135460213,-0.20408969656116838,-0.1828387321823956,-0.1603258625218651,-0.24846441722228568,-0.4247626933384773
-0.1532818314447179,-0.10778435277057183,-0.16107276135460213,-0.20408969656116838,-0.1828387321823956,-0.1603258625218651,-0.24846441722228568,-0.4247626933384773,-0.4900286413415169,-0.3187110656900569,0.00866709566157689,0.27423318368395155,0.21014396372817112,-0.2279156384261215,-0.7129437826252192,-0.9109229006637758,-0.664280625978061,0.0669892638675732,0.7200627066237757,0.441282612630353,-0.45630203106095824,-0.877156715371956,-0.6058924279001545,-0.18529998993853938,0.03647937154559239,0.034234497618667085,-0.11253229394553438,-0.28746963736389336,-0.37650262385074307,-0.3705838644916152,-0.2913499615236199,-0.11435324327701378,0.023706596748352564,-0.08445812097138877,-0.3091383652339945,-0.37704022884875743,-0.3052977779240328,-0.23822504809583556,-0.20266876782127613,-0.18044572521575297,-0.16799511326607064,-0.1641225557418744,-0.15689752850922853,-0.14101423668755952,-0.17653624500068932,-0.3010858686397007
0.5068134751789065,0.16513646142212068,-0.07337777729931194,0.04370481938856477,0.3098134529038635,0.41466476522858675,0.2943891454632749,0.129166319715859,0.08282564771224576,0.159014929955552,0.33022357345381426,0.5173209137106017,0.566063294034918,0.34647266591180287,-0.13211074082888175,-0.5017042346938101,-0.20943773625846213,0.6411408119323119,1.0966306695328443,0.6639587678390511,0.03610324682374,-0.11895357511142518,0.018951485762976977,0.12624232308654054,0.21268355199423028,0.31050006451512324,0.3422445153413164,0.3211152009768265,0.3360482686283034,0.34572184159981967,0.2313239431652929,0.03714899183944115,-0.0323536404796082,0.12939731493695172,0.3971619241139237,0.5682697669662768,0.5187395653059536,0.25688067360129907,-0.04142157711923783,-0.16907959202166875,-0.04134404518807462,0.2994046049960516,0.6521233190773579,0.7511957851245212,0.5294907166509942,0.14528583224819658
0.12939731493695172,0.3971619241139237,0.5682697669662768,0.5187395653059536,0.25688067360129907,-0.04142157711923783,-0.16907959202166875,-0.04134404518807462,0.2994046049960516,0.6521233190773579,0.7511957851245212,0.5294907166509942,0.14528583224819658,-0.2020839565103031,-0.3498815587095505,-0.22309752236521616,0.1411232311762945,0.6717910901553439,1.1359997414135514,1.0681840663058864,0.33244676630465886,-0.5062602677471897,-0.8392341553264209,-0.5891599628609046,0.15983467957899766,1.20869006646396,1.6581678530114607,0.7808661701732855,-0.49842324985029984,-0.7703593310008995,-0.11891792346024055,0.44857268137297424,0.48915648865804284,0.2961008329379089,0.2811689973865507,0.5019203635371385,0.6147732381886034,0.29839626507414746,-0.26013402692716536,-0.45790165142815287,0.01023402817260266,0.6605910258832884,0.8440709661730647,0.582489254746959,0.23629859526463004,-0.05515142609153506
0.2994046049960516,0.6521233190773579,0.7511957851245212,0.5294907166509942,0.14528583224819658,-0.2020839565103031,-0.3498815587095505,-0.22309752236521616,0.1411232311762945,0.6717910901553439,1.1359997414135514,1.0681840663058864,0.33244676630465886,-0.5062602677471897,-0.8392341553264209,-0.5891599628609046,0.15983467957899766,1.20869006646396,1.6581678530114607,0.7808661701732855,-0.49842324985029984,-0.7703593310008995,-0.11891792346024055,0.44857268137297424,0.48915648865804284,0.2961008329379089,0.2811689973865507,0.5019203635371385,0.6147732381886034,0.29839626507414746,-0.26013402692716536,-0.45790165142815287,0.01023402817260266,0.6605910258832884,0.8440709661730647,0.582489254746959,0.23629859526463004,-0.05515142609153506,-0.19954016774595607,-0.0761948381355424,0.23677575658727532,0.5021412901524318,0.5508758654846886,0.41528965029854653,0.27306608643693187,0.2291403843141905
0.41528965029854653,0.27306608643693187,0.2291403843141905,0.19724232827849217,0.08529784511153271,-0.010643393751217645,0.04115597895616833,0.2084421035166458,0.36773076078841493,0.4574211393305187,0.5128760289416221,0.5193491972728687,0.3598766423209856,0.03294204825873803,-0.3162242279819859,-0.458231297735463,-0.02148822486462948,0.9097883475365542,1.3218804045000687,0.6255478476014193,-0.3122899625797262,-0.49857261582349144,0.007597438308739225,0.5045007492621585,0.5153989984100431,0.26110387205343427,0.19226139145884408,0.30916056345100873,0.3417001067295573,0.2036505921043015,0.026712139094221293,0.021485622409903912,0.2519323066778373,0.4973229307997838,0.5023269936123712,0.2780886888461671,0.07207267872433215,0.056329623435856735,0.15327886997000204,0.23602198244230563,0.29911526022792173,0.3392348625258344,0.28348501582943153,0.18001012755443146,0.2020655947255564,0.343825887671221
0.18001012755443146,0.2020655947255564,0.343825887671221,0.3913101768269244,0.23518815619350616,0.02822345646080665,0.0070775360604203585,0.19297447307547447,0.34819298734507165,0.35314341744182026,0.3697188730228026,0.4520892649090945,0.4266841185958572,0.1999495568991692,-0.13555721157636252,-0.31475049204929095,0.023258102519153584,0.7524299890134948,0.9866666011133128,0.3540389910885869,-0.2477544573529077,-0.16358480984677767,0.18179355424419544,0.35739167747454026,0.41858445975464414,0.40720730235338676,0.25548553481080305,0.07976901514392568,0.09024755566981749,0.2534989185360249,0.34305458636505537,0.29963656875673206,0.2677983094070878,0.2812183960582071,0.23876989522486883,0.14707061881620417,0.09880207006835656,0.1564975364317899,0.3226749400147899,0.4556754049990467,0.388262938220545,0.1992024584708947,0.09916092101412696,0.12221249222080824,0.1789103705495539,0.2535549942864848
0.12798472735978872,0.16836734021602734,0.29932148890943333,0.3258458565697425,0.28050538374885203,0.2681145180479803,0.2501949241125011,0.1475134162880615,0.03565578122488375,0.10236576275717763,0.3548490711942307,0.567323637521522,0.5563620567482608,0.321591000512046,-0.07572228955395999,-0.44910392158752743,-0.2647727918582907,0.6655776218900686,1.3278044060618197,0.7812527913388857,-0.2620220539982795,-0.5987019931622023,-0.15413281167198625,0.4393824384226755,0.7303636472583162,0.6012267582545485,0.2401645460823965,0.006754279248602502,0.03820389240241073,0.14294095366154164,0.20211242163778237,0.31575186159383223,0.4463717841119809,0.38562861807323406,0.17594155555021693,0.09118741525088908,0.18164308010631347,0.25582836370992307,0.22231493772269412,0.1797984296651045,0.23983189534668053,0.346108899398247,0.3588056755723712,0.2799312233527005,0.1978915553844647,0.15837789410880465
0.2799312233527005,0.1978915553844647,0.15837789410880465,0.18840562592918442,0.245000908399459,0.25313395161340047,0.2387687789381523,0.2202233790477,0.16969519013515855,0.17948580247192253,0.32945037612984757,0.5013862615367966,0.5313545212375226,0.28106592168325867,-0.2422701857263344,-0.5462615613039736,0.0033179570408610193,1.036894489681845,1.2388054638152584,0.33702367570839453,-0.39206706717281864,-0.22677066855719835,0.2069439629910847,0.3122020205874317,0.2451858059088307,0.30479814190044124,0.4140246004757893,0.3721546197841904,0.19479818863168108,0.07474347087696495,0.14841559045402816,0.31646749022955434,0.37759100794505385,0.2683875862524939,0.10224893712585603,0.08662271833429847,0.27365045012941436,0.4170229082743957,0.31376415560778853,0.13021542960395543,0.16027912891321716,0.3493864833137893,0.36105533164656833,0.1403124523566563,0.016432834655563333,0.18759657052475612
0.1403124523566563,0.016432834655563333,0.18759657052475612,0.43517496684958445,0.4589821792915485,0.27973894999894955,0.12954442219465742,0.1008511617120589,0.13220406887364783,0.19922015287776043,0.2976720093276517,0.4105087014890312,0.5186905763635087,0.4358290991406497,-0.026879190809131925,-0.49751109643295843,-0.22242953027069773,0.7250124222595902,1.1599890776426645,0.5523413235739307,-0.162583745031193,-0.23437333629739876,0.05968718618690509,0.30424134241274514,0.39732283626203757,0.35170809638981826,0.27782201139049545,0.2993028673176077,0.33462224887767633,0.2368163609764635,0.04298969685378218,-0.061906041177667626,0.10677927626491537,0.4905057033926327,0.6836901898313263,0.43281632723936203,0.04419968018387638,-0.08036015663038942,0.0705376717584219,0.2850624215610105,0.38520285461617176,0.3256575086672781,0.2268576891325917,0.21688208783722196,0.2698898423589458,0.30374322368675793
0.21688208783722196,0.2698898423589458,0.30374322368675793,0.2952632323994918,0.2274683111008863,0.12405316215724674,0.0925064884310485,0.15895001840648618,0.23834969096237235,0.3265114725842754,0.45941056526404606,0.5190624995201304,0.3740260276976486,0.07811727794636925,-0.242252119046879,-0.33109580668239036,0.18341900999732424,0.9758741001226333,1.0258414125981323,0.2522197501172634,-0.3223933188237936,-0.2376484609611932,0.12699233599325788,0.4278130036442241,0.5242204290992769,0.37661062371818543,0.17503686073846073,0.16030852924167044,0.261187751332129,0.24539307755701298,0.11824123183442439,0.0789567617427747,0.22246022714980868,0.4471611328393967,0.5159548083323694,0.29619775914341173,0.05122052332595939,0.08931144782138378,0.225029879465719,0.1941942281788629,0.1748859251568348,0.32881206709855026,0.4453739369543858,0.35491158010789037,0.17429193669001988,0.08844244371496421
0.29773493328471307,0.21549889876343525,0.2517430277983609,0.33488125636116334,0.3019037520341261,0.15251832389302022,0.023166491226889074,0.02258539026333571,0.19394081628811266,0.44440835658850475,0.5816825983360139,0.5222642650678229,0.319706210152688,0.05394627844896355,-0.20728250791525576,-0.3047417331058025,0.08701122190982358,0.8451610949042474,1.0672629548047976,0.40512389845216024,-0.2654064259834774,-0.2502609882531185,0.14789449931404075,0.3946989107403166,0.41376589232438854,0.3745790140512563,0.29032546617932403,0.14135425296172827,0.08285831940373398,0.20415312040126204,0.3336312635298223,0.3361866288217314,0.2860950341343617,0.25098656866434965,0.20496363783840021,0.14770365759839832,0.17015111448666992,0.2793261326626714,0.29754027538450534,0.19320359074644994,0.19319638771692585,0.344378588387843,0.3867162545274804,0.22946169876779748,0.11112262253728372,0.17866377538554884
0.19319638771692585,0.344378588387843,0.3867162545274804,0.22946169876779748,0.11112262253728372,0.17866377538554884,0.27764328336616423,0.22322259897648833,0.10029609129954134,0.1539069037682113,0.41717737055476545,0.6386288613558024,0.5609215715360403,0.14248037086290788,-0.38193530692768096,-0.5077303542368123,0.1605067835500168,1.1038364294429117,1.165699394610158,0.27102950929574676,-0.42231867007453333,-0.3196204434311209,0.14818510209305458,0.46453727061811484,0.48149476351984943,0.3571220851414352,0.27312118364744664,0.2179702347844768,0.1633576888231731,0.1566792757456368,0.19497280361046943,0.26091782206772535,0.32815344364911614,0.31826501897091936,0.2246870467461676,0.14728166190727512,0.1686078330640914,0.2774537319310832,0.35155889291947684,0.27721252112353645,0.155166330613658,0.16834337774814767,0.29040592556167477,0.3544292102942643,0.27467370812703357,0.1576489320690791
0.27721252112353645,0.155166330613658,0.16834337774814767,0.29040592556167477,0.3544292102942643,0.27467370812703357,0.1576489320690791,0.14422451910927453,0.17192969076005502,0.19450891757915337,0.327507923081853,0.5083417744601347,0.49709214984457895,0.2518064822496922,-0.0837356213988738,-0.3004106348175349,-0.019261943059201925,0.74497906081173,1.0393711528649114,0.3603467763356883,-0.3353045308360003,-0.25701833356187687,0.1945034492825052,0.45510650286088555,0.47017150441164657,0.3951219066976156,0.28270025455096415,0.1455449591200279,0.08607235147129655,0.15941648835731398,0.27355038022107264,0.3295924685673104,0.3015361525467856,0.22467087207474543,0.19248160091589606,0.24223560803232977,0.29610230527730147,0.27918095971927015,0.1907103699945114,0.12725773909620663,0.19204253126790366,0.3204033327561893,0.3880707791930809,0.37972151141438276,0.30538018871331657,0.15488759704238458
0.12725773909620663,0.19204253126790366,0.3204033327561893,0.3880707791930809,0.37972151141438276,0.30538018871331657,0.15488759704238458,-0.022648557364510713,-0.07215565022004372,0.14258033893247085,0.4931444937877305,0.7096065932280318,0.683212039871678,0.34118628546940827,-0.30998749193138875,-0.7348818877511754,-0.21561548591217428,0.9444884750102687,1.4079706514004573,0.6605694481685538,-0.24911670805925556,-0.417173584276513,-0.0822361063712809,0.24035494273869812,0.42339247567278615,0.5041692252316554,0.43872491233776767,0.2749941239458452,0.17933602595340967,0.17339298579012255,0.14475856537824044,0.090646469795641,0.18364606018815777,0.4233217780298833,0.4735980658194109,0.23021097370405497,0.026820336512854537,0.0852744850622275,0.2917458826374045,0.39879200553339134,0.2919510253679439,0.15968267582813722,0.21127498575686485,0.3476414957365305,0.3404483728810778,0.17519021799663204
0.39879200553339134,0.2919510253679439,0.15968267582813722,0.21127498575686485,0.3476414957365305,0.3404483728810778,0.17519021799663204,0.0526462774429714,0.07925581441924459,0.2071661206352386,0.4272077696847447,0.6259587368745899,0.5427483801565138,0.1760394573989077,-0.20379191790276752,-0.35451431432529246,-0.0041316144010389855,0.7653252710592252,1.0695404057082363,0.4615625463372743,-0.23610033757950827,-0.32766990220885883,0.01997653566262946,0.4151152087974601,0.5762195241250614,0.45544981453092065,0.23811108970275144,0.11886140677704277,0.1373393231096485,0.19058669637680703,0.2232974756187309,0.2744697636537172,0.31512023488806695,0.29592707312117933,0.2579433059092612,0.23010505523651537,0.21042611084608998,0.21246861694071867,0.2200761076710204,0.20663449390891153,0.19432168221200166,0.23646414747863784,0.3458750987579874,0.4457542251824033,0.3870012142397738,0.13946172794698009
0.20663449390891153,0.19432168221200166,0.23646414747863784,0.3458750987579874,0.4457542251824033,0.3870012142397738,0.13946172794698009,-0.06451954949497751,-0.028648923795426884,0.17593679124918754,0.42610205385411526,0.627355375901201,0.6346931564484583,0.35356424585596824,-0.15381847218641642,-0.5339019270006884,-0.2046339181001719,0.7523820755222415,1.2081767309214135,0.5885468563751319,-0.22680052632222458,-0.3855879927484406,0.007984562209281877,0.47532404533553335,0.646892799519897,0.4296283581385363,0.10361008029007363,0.035349893729390125,0.18978142228529446,0.27129759725234476,0.23382941141556335,0.24087847507482854,0.32591828782521093,0.34495080624942065,0.24745247659911865,0.1645689779857331,0.1556033418126549,0.17502487273722978,0.21695424460805632,0.2932506287279787,0.347155950612667,0.31596141157708524,0.2742446583068414,0.28431090952648247,0.2437459005994679,0.10646517839378669
-0.6169499965016728,-0.5031902622509337,-0.5503859808811243,-0.6365287798956445,-0.6531611204342028,-0.7114838301324997,-0.8504288579907499,-0.8688818730303556,-0.632452753541906,-0.33825324603369117,-0.3310807149657063,-0.6307553123363953,-0.8714175621772501,-0.8561690742807875,-0.8215382944306804,-0.9102652282935748,-0.7320265555250465,-0.1333823189966464,0.05658880645144736,-0.6233712137168127,-1.2609771001802947,-1.1695422360119754,-0.7535100558813514,-0.4562574362406922,-0.34708971995555493,-0.4250477626414811,-0.6417866359216535,-0.8171747634321325,-0.7994658766649464,-0.6875102738765424,-0.6411232548668442,-0.6440471213532301,-0.6295120702422361,-0.5878483282551188,-0.5766561237600891,-0.6890303108917286,-0.818300160142484,-0.7386834644899721,-0.5657928958306949,-0.5490162415677664,-0.6032705503953248,-0.632116951638606,-0.7286015502400651,-0.7791716629121066,-0.6042488220922544,-0.4426556553504807
-0.5490162415677664,-0.6032705503953248,-0.632116951638606,-0.7286015502400651,-0.7791716629121066,-0.6042488220922544,-0.4426556553504807,-0.6347201225608261,-0.9904816536146698,-0.9831069372327552,-0.531298405618153,-0.1651918843488764,-0.27658775182812045,-0.6817352323820884,-1.0709253241468817,-1.2429192164496867,-0.8998540153510244,-0.20371014898944656,-0.022325133372045808,-0.5099149555685758,-0.8739121939150603,-0.8941193767787844,-0.8516562901036642,-0.7067074935887352,-0.5152861620717459,-0.5189083074942438,-0.6339651863181739,-0.678547036385183,-0.6983342576442451,-0.750631347491186,-0.7644270742505356,-0.6530479857953819,-0.48708363780011865,-0.4426251909759399,-0.5600906716204525,-0.7727894614849004,-0.9645603750949037,-0.9006598833335822,-0.5699461016975955,-0.36017341432927286,-0.44308065384479955,-0.6095603498238994,-0.7571467791868903,-0.8522459466497669,-0.822704098815322,-0.7203357085939794
-0.7727894614849004,-0.9645603750949037,-0.9006598833335822,-0.5699461016975955,-0.36017341432927286,-0.44308065384479955,-0.6095603498238994,-0.7571467791868903,-0.8522459466497669,-0.822704098815322,-0.7203357085939794,-0.5738115666508095,-0.37868324638928386,-0.3120057648538535,-0.6020266991871935,-1.162015487365431,-1.3775260662096045,-0.7212714972870815,0.19952064796859542,0.19470259751542016,-0.7646117753602436,-1.5074249228610246,-1.2986334759376623,-0.5719678449676253,-0.14702901397135992,-0.2997887872307997,-0.6395341942162603,-0.7420479325979642,-0.6869600564823413,-0.7352879173953122,-0.8397608725193572,-0.8175419494145129,-0.6673484160514818,-0.49846177740780756,-0.3956832253075087,-0.4647750183007594,-0.6917022622316007,-0.845105729083766,-0.8383119873370469,-0.7941771244561275,-0.7102461844890533,-0.524918453790204,-0.3724393659151268,-0.47446741790511954,-0.8042995304041577,-1.0242744318122936
-0.6917022622316007,-0.845105729083766,-0.8383119873370469,-0.7941771244561275,-0.7102461844890533,-0.524918453790204,-0.3724393659151268,-0.47446741790511954,-0.8042995304041577,-1.0242744318122936,-0.8499579369821808,-0.41621510466837697,-0.16846733224227273,-0.38729077344581014,-0.9470036199305195,-1.4034063478344199,-1.2104027351825515,-0.30734304412360697,0.3769875140067633,-0.07783987857800545,-1.0961784036852555,-1.4386318161873068,-0.9598101956742665,-0.41027634811334796,-0.3064545551099919,-0.5151406335562532,-0.6517728173358881,-0.6565537655233877,-0.7116103120289086,-0.8210400236816662,-0.8243071193887967,-0.6600391457896244,-0.470494471139274,-0.46715214971571767,-0.655799843605948,-0.8172919374513352,-0.7986850489225308,-0.6468904927950098,-0.5114851250263315,-0.5091968233063486,-0.6428668450236951,-0.8007906593153898,-0.8263521064246946,-0.7046687740434009,-0.5878257997582604,-0.5845426055305363
-0.7986850489225308,-0.6468904927950098,-0.5114851250263315,-0.5091968233063486,-0.6428668450236951,-0.8007906593153898,-0.8263521064246946,-0.7046687740434009,-0.5878257997582604,-0.5845426055305363,-0.6410729024948991,-0.5854368942898985,-0.430521402600712,-0.47745774055194196,-0.8315026015553719,-1.2193880571201943,-1.2176075479515198,-0.5503237768155076,0.22279520073848494,0.0941148481702457,-0.758908162915797,-1.2670605248427897,-1.1439643139727682,-0.8156031875420778,-0.5236366170226574,-0.32636438315205346,-0.34132870016317296,-0.6087012001074632,-0.9076680018901105,-0.9145674334245273,-0.635776913732454,-0.45844769956531395,-0.5883511355354921,-0.7858821495097479,-0.7954692220796546,-0.662393538055936,-0.5437075610449864,-0.5058976009353147,-0.5508179456301565,-0.6660969399713157,-0.8107105125953151,-0.8554534167222887,-0.6930730068739348,-0.4860373210304639,-0.5143911421087004,-0.7520128877814898
-0.5437075610449864,-0.5058976009353147,-0.5508179456301565,-0.6660969399713157,-0.8107105125953151,-0.8554534167222887,-0.6930730068739348,-0.4860373210304639,-0.5143911421087004,-0.7520128877814898,-0.8623296786023982,-0.6452338480211188,-0.3305483468242578,-0.3147610052319063,-0.7286646039772694,-1.2598428283452878,-1.2890368801447503,-0.5574072988311336,0.18118309896727833,-0.028982057450080617,-0.8610425221308113,-1.2328299178273139,-0.9499540474656303,-0.6092184140805471,-0.48233289601145,-0.42384221490984453,-0.45621658167774737,-0.6986500673497684,-0.9596938779167475,-0.9539299778829681,-0.7089110056496162,-0.463001856524886,-0.3579721165580802,-0.427506895291647,-0.6677261583734035,-0.9148237822161764,-0.9267421497304521,-0.7384088555012207,-0.5973232080492518,-0.5450505661225605,-0.46933227849230186,-0.4376802532654296,-0.6156373604942154,-0.9507251367303641,-1.0976325055092098,-0.7856438318295875
-0.9267421497304521,-0.7384088555012207,-0.5973232080492518,-0.5450505661225605,-0.46933227849230186,-0.4376802532654296,-0.6156373604942154,-0.9507251367303641,-1.0976325055092098,-0.7856438318295875,-0.2866719240080184,-0.14473346377033958,-0.43172060422604047,-0.7926333961455642,-1.0837151100297322,-1.273735398072144,-0.9949522542469766,-0.17957565727160435,0.27755138091735465,-0.25230440753490296,-1.0269236783827218,-1.216631761533753,-0.9829380893985646,-0.6953741438283421,-0.47434808355723906,-0.43175210186370805,-0.5084845044363584,-0.5228397306049739,-0.5608492563719778,-0.7732492270738739,-0.975410090617918,-0.9217355300384704,-0.6766856202807616,-0.4480110765001957,-0.37072558903617403,-0.48494069554654445,-0.7072904796185617,-0.884805652789746,-0.8947968943515199,-0.7202679622423998,-0.5022611669079621,-0.41609837450714304,-0.512377184810258,-0.7053214272082119,-0.8713209343089243,-0.9308966165581907
-0.884805652789746,-0.8947968943515199,-0.7202679622423998,-0.5022611669079621,-0.41609837450714304,-0.512377184810258,-0.7053214272082119,-0.8713209343089243,-0.9308966165581907,-0.7945190229690554,-0.4572359723182989,-0.18328781451464896,-0.2866087040500441,-0.7329172459271268,-1.1804024199406418,-1.3055901658782993,-0.8798778384237079,-0.10408827010368099,0.15274328772878087,-0.4536132698628845,-1.0743336954880904,-1.0870217662208046,-0.8188066799875587,-0.6241498098623892,-0.5101575002873391,-0.5126613561271751,-0.6295223570921398,-0.6702696645826381,-0.573714136423791,-0.5508965725705914,-0.7487298063151098,-0.9912743532714382,-0.9287432148576036,-0.5182224557263315,-0.23374549256175003,-0.42050740481348575,-0.7699607203584131,-0.85593412990791,-0.7080192298205776,-0.5880392989150178,-0.6248718179861763,-0.7592641646270992,-0.8211710115243788,-0.7161988691743205,-0.5569792151523552,-0.46432974947956573
-0.42050740481348575,-0.7699607203584131,-0.85593412990791,-0.7080192298205776,-0.5880392989150178,-0.6248718179861763,-0.7592641646270992,-0.8211710115243788,-0.7161988691743205,-0.5569792151523552,-0.46432974947956573,-0.3970640769910364,-0.4090910673123528,-0.6911943672158132,-1.1413212682178884,-1.37218361310516,-1.0282292121095238,-0.14051006010864298,0.41302993796943716,-0.13069822106672935,-1.0693729405316348,-1.3493050904245123,-1.0151937654648973,-0.6420620277341181,-0.49892998832742264,-0.48117146998981764,-0.4324421235293349,-0.44372951184640275,-0.6440962021356174,-0.9151018217801675,-1.0065526176827797,-0.7914035500780717,-0.45305905202904345,-0.34340761099985817,-0.554410030604128,-0.8118100826920897,-0.8268429430561267,-0.6440699251958802,-0.5625754003274636,-0.6840560466424519,-0.7583930584700509,-0.6263040212691677,-0.49363541594226745,-0.5762811696648606,-0.7871787070844993,-0.8721368820804694
-0.35862839048703604,-0.4830414114563531,-0.6934360997401772,-0.7621463270401957,-0.7656962070818871,-0.7895322884510518,-0.7556333902056267,-0.6474040247431175,-0.5907734451450137,-0.619419804123398,-0.5667699635977058,-0.4079300547514111,-0.3847125073022926,-0.6670893421208323,-1.1576670628903407,-1.4046322043046362,-0.8785094828603756,0.08230675497754453,0.3049996786127986,-0.48683887867069564,-1.2495050940152947,-1.2958014366219985,-0.875833898186662,-0.43576795073273134,-0.28050444407454006,-0.42930034424856545,-0.6351236065965706,-0.76417489475508,-0.8380030614353727,-0.8088087667934164,-0.6881791226614028,-0.5973831510179868,-0.565145804961704,-0.5547391701267339,-0.5708695265234066,-0.6359093874322932,-0.7430116582925335,-0.8314304680351975,-0.8254371537141907,-0.692294816269814,-0.4786357030197243,-0.3548820826124983,-0.4920201289143642,-0.7672095591816851,-0.8769105677392975,-0.8107370670384402
-0.692294816269814,-0.4786357030197243,-0.3548820826124983,-0.4920201289143642,-0.7672095591816851,-0.8769105677392975,-0.8107370670384402,-0.7717256350346392,-0.7421444555527896,-0.5847242963480945,-0.36773677256490467,-0.29825786036854457,-0.48663334120768265,-0.8488145234702151,-1.150587034972714,-1.156308772556594,-0.7302629567477787,-0.08498172099577372,0.07752721580316498,-0.5267818690071285,-1.172746000070125,-1.231637477457301,-0.8831060206222988,-0.5072485408140472,-0.2713939213382274,-0.26284584785707993,-0.530135930418232,-0.883304013331333,-1.0159468401040344,-0.8932267177208708,-0.6796253974394955,-0.4732315990319709,-0.3396007786467069,-0.4148948849600921,-0.7247423920597637,-0.9579083816550505,-0.8491383697071201,-0.6265048700923596,-0.604029593227585,-0.6934613758940655,-0.6566895525922898,-0.49706872384085704,-0.4175209700599185,-0.5461112405773255,-0.7964636482931282,-0.9622110754465846
-0.6934613758940655,-0.6566895525922898,-0.49706872384085704,-0.4175209700599185,-0.5461112405773255,-0.7964636482931282,-0.9622110754465846,-0.9324198413063273,-0.7735560400452015,-0.5503017877500503,-0.31051152268615145,-0.23834183761456607,-0.4503215896798774,-0.8084576043908427,-1.1593212501314176,-1.3150417245545423,-0.8778527683119354,-0.02349105729211287,0.20235196700671965,-0.466434009398628,-1.0612942489811736,-1.0885485979488272,-0.8964545390272162,-0.7114740961566163,-0.5263462166047195,-0.40623654328816367,-0.4507573371543676,-0.6307261780432848,-0.78426077023963,-0.8129311873879587,-0.7599077982335569,-0.6784958553614936,-0.5805409804194468,-0.5163713784422023,-0.5635061872493418,-0.678358907894295,-0.7338535999329957,-0.7286313484504968,-0.7192012394387732,-0.6867945593824987,-0.6405137181384427,-0.6274084283678902,-0.6223252420801413,-0.5593201213470205,-0.48207775691103255,-0.5644651325314854
-0.5860698524730384,-0.39514118598517545,-0.40958274627845126,-0.6289951988692413,-0.8529736678026184,-0.8500966180771345,-0.6717153957918759,-0.5852475890522342,-0.6698104811335921,-0.7144354287321797,-0.5782020378384503,-0.4491704559427797,-0.5182709982222827,-0.6851570151012814,-0.8711513096165368,-1.078588199534508,-0.9397156554762244,-0.260709360121976,0.10037519526709963,-0.5003683577945095,-1.199343031572881,-1.1205319735387604,-0.6482220814940611,-0.42024402612814765,-0.48802891693833683,-0.6233878671413985,-0.6751627592095073,-0.678203245598118,-0.7333960137397222,-0.7715799601326649,-0.6748753858184402,-0.5521861062214083,-0.5641589291825546,-0.638364991290556,-0.6569649085460126,-0.6552056541481517,-0.6778774353412136,-0.7285653627854008,-0.7786274913740157,-0.718590243163282,-0.5584863122647533,-0.5034405951391909,-0.6028618186339206,-0.6735971719037905,-0.6335201971982798,-0.6045339366107563
-0.5584863122647533,-0.5034405951391909,-0.6028618186339206,-0.6735971719037905,-0.6335201971982798,-0.6045339366107563,-0.7148871066179536,-0.8931376455705121,-0.9024191580302536,-0.6691517144620319,-0.3999866194099395,-0.30151416486342997,-0.3971264559011362,-0.6243818417331243,-0.9479890802663344,-1.2249540086405575,-1.0522222094395484,-0.35294015546934354,0.048959300037069525,-0.4137284919767739,-1.0130592128408953,-1.0165144439308271,-0.7230004212633306,-0.5930402707728357,-0.5796592901730658,-0.5202157094936707,-0.4896414637506108,-0.6279608325656132,-0.8378884767174517,-0.868377160114234,-0.7109703873713762,-0.5776711730077055,-0.5144361912690203,-0.4644846778711768,-0.5446319310933734,-0.8053545621544487,-0.9656968023130968,-0.8051093411450476,-0.5439440020576195,-0.4795940008889384,-0.5785324634192023,-0.6780249092647901,-0.6777417777027976,-0.5486666744598467,-0.4980560847932699,-0.752661018810344
-0.4795940008889384,-0.5785324634192023,-0.6780249092647901,-0.6777417777027976,-0.5486666744598467,-0.4980560847932699,-0.752661018810344,-1.0690769078770455,-1.0061403564747526,-0.5953655952529624,-0.25146298403803785,-0.2202542150088898,-0.44455310005234705,-0.7347273594228414,-0.972278569392709,-1.165587462318999,-1.114075432492281,-0.5214952513169134,0.12379522150859201,-0.051930190678699695,-0.8038880575931865,-1.220689084042106,-1.0943654750075875,-0.6901841898914783,-0.3070256176777113,-0.2944347338471962,-0.6262445892920181,-0.8656438084205363,-0.8412829600509564,-0.7345415731589497,-0.624386368533396,-0.5120402953334533,-0.4921879041772491,-0.6073143032020424,-0.7563076881770058,-0.8178871730898063,-0.762839052877639,-0.6497897303374427,-0.5961731904376134,-0.6522924749503324,-0.6770135510057138,-0.5563561769508876,-0.461970896795892,-0.6072610378773315,-0.856771771843977,-0.9009882441403585
-0.6770135510057138,-0.5563561769508876,-0.461970896795892,-0.6072610378773315,-0.856771771843977,-0.9009882441403585,-0.7227688498123837,-0.5627867396958524,-0.5364984138154074,-0.5551214316680178,-0.5545612503992601,-0.5787879839030269,-0.6464480000785748,-0.7675766571743412,-0.9944346221393926,-1.1731884811887836,-0.8392973719758474,0.0372231976063781,0.42838689031877997,-0.3735652284969718,-1.3874002829001837,-1.4749263972205457,-0.9237598612735121,-0.5297604174661718,-0.45997320085308663,-0.4331110152705281,-0.3465087166080255,-0.38481665533893517,-0.6496212001071794,-0.9783275717777392,-1.1022199498829963,-0.8906619210941289,-0.5291474802006874,-0.36461055244140544,-0.4688756400207945,-0.6114632386865897,-0.6544499621636546,-0.6580784481910135,-0.70872856480021,-0.8132403718202994,-0.8555264707375352,-0.7280546186808329,-0.5310498400619476,-0.4532170954572765,-0.5159183958750214,-0.5784003442884715
0.11805785774906999,-0.11370077866738726,-0.3374842588202585,-0.45175512770082704,-0.4363327351635724,-0.32174327842952444,-0.07961929780697596,0.30601654661116906,0.7143531238512127,0.9145391461779815,0.6858609417245422,-0.002197775851374484,-0.8757552775493163,-1.5140837004256875,-1.61259394406936,-1.0089662994524233,0.31604049440679804,1.9295800621883048,2.8392772194048703,2.2253071277019387,0.20870174625444582,-2.430714895909856,-4.358011969784663,-3.6711684245491547,-0.25510350419730754,3.065410114952722,4.151080438928865,3.4106840467267485,1.2634391002448977,-2.06151355130676,-4.438145663250197,-3.676120280692137,-0.6990261790468968,1.8686287464358902,2.6958313748398948,2.053451620881579,0.7641565063962905,-0.47704413027876025,-1.2751606954203463,-1.4481012956193666,-1.0216095845914643,-0.2930144761818043,0.33245101692863865,0.6385562538246043,0.6501753951669133,0.46329769747721683
0.7143531238512127,0.9145391461779815,0.6858609417245422,-0.002197775851374484,-0.8757552775493163,-1.5140837004256875,-1.61259394406936,-1.0089662994524233,0.31604049440679804,1.9295800621883048,2.8392772194048703,2.2253071277019387,0.20870174625444582,-2.430714895909856,-4.358011969784663,-3.6711684245491547,-0.25510350419730754,3.065410114952722,4.151080438928865,3.4106840467267485,1.2634391002448977,-2.06151355130676,-4.438145663250197,-3.676120280692137,-0.6990261790468968,1.8686287464358902,2.6958313748398948,2.053451620881579,0.7641565063962905,-0.47704413027876025,-1.2751606954203463,-1.4481012956193666,-1.0216095845914643,-0.2930144761818043,0.33245101692863865,0.6385562538246043,0.6501753951669133,0.46329769747721683,0.1624640928009054,-0.14363403370993305,-0.3471674007099915,-0.4148261894412747,-0.3698493824588798,-0.22823778391655447,-0.016857650695957738,0.184631278801846
0.31604049440679804,1.9295800621883048,2.8392772194048703,2.2253071277019387,0.20870174625444582,-2.430714895909856,-4.358011969784663,-3.6711684245491547,-0.25510350419730754,3.065410114952722,4.151080438928865,3.4106840467267485,1.2634391002448977,-2.06151355130676,-4.438145663250197,-3.676120280692137,-0.6990261790468968,1.8686287464358902,2.6958313748398948,2.053451620881579,0.7641565063962905,-0.47704413027876025,-1.2751606954203463,-1.4481012956193666,-1.0216095845914643,-0.2930144761818043,0.33245101692863865,0.6385562538246043,0.6501753951669133,0.46329769747721683,0.1624640928009054,-0.14363403370993305,-0.3471674007099915,-0.4148261894412747,-0.3698493824588798,-0.22823778391655447,-0.016857650695957738,0.184631278801846,0.27801704329266924,0.21850992559200977,0.04841242773307361,-0.12856377565246258,-0.2134388600814414,-0.18130477031738906,-0.09544450804918365,-0.028869566718848827
6.817761851655748,6.486611912912263,6.170848190923129,6.239686794508395,6.6445637606582375,6.891454688116001,6.761195800379503,6.482757084610249,6.285365135101729,6.29748983146635,6.539794597245264,6.817120919167096,6.891922033440028,6.691938043758006,6.327563811728161,6.052674467260876,6.155101618536281,6.709617007931982,7.235673500493453,7.047488178750961,6.327316332891534,5.962118373810102,6.227613024473736,6.64379009641097,6.835789721725738,6.783679985337726,6.593188064463757,6.442628443859248,6.4402206778020785,6.4777933067952125,6.486731554890295,6.551450064169264,6.63399955300622,6.6138266696532835,6.540814746312137,6.523533011930497,6.568321966130202,6.601328856867974,6.528233698600414,6.405502647194103,6.415309009188074,6.566756364453878,6.711349148275092,6.739633273052061,6.609225347416493,6.44259127215282
6.711349148275092,6.739633273052061,6.609225347416493,6.44259127215282,6.41996591147961,6.477025880430803,6.499743105101915,6.531477542377969,6.568815082572852,6.59466532649368,6.6489065401696585,6.681959637673536,6.647553682484686,6.548926253921537,6.31995049007594,6.098511976755219,6.316364301554655,6.945048881588972,7.2378279457475445,6.793813223884046,6.150464493117373,5.98969168816787,6.34651745421156,6.731304760143078,6.837588037420515,6.7682193892144955,6.606461355355502,6.410366609426451,6.344045427619469,6.416174503265204,6.5245700974964,6.638804762483381,6.70988433194577,6.687021881512001,6.571579889026668,6.424986130708714,6.394500698291556,6.508546186101615,6.591092867936535,6.57174012165585,6.546371015973575,6.542046931424069,6.5680559558358,6.638902839346169,6.633036137084335,6.523154265208267
6.828276759423437,6.792774552420591,6.547103632437421,6.355028652207661,6.328617001976227,6.4892898621464035,6.736668871690946,6.762968731209704,6.488413542761257,6.253793014670139,6.3593242374339365,6.741367605911552,7.008132536685666,6.806582038688881,6.292922307841064,5.952682583694505,6.146063177040468,6.80883086148007,7.222614029781523,6.86259768882444,6.286116551189203,6.138071643752301,6.316599146211794,6.607495815418691,6.874525545765818,6.837916846946991,6.499642581658538,6.214543677942458,6.215103656343966,6.543420064530202,6.957589615727325,6.962001487826775,6.527251847347762,6.151218569956104,6.145672753450018,6.506698397648743,6.924216347285713,6.910974104275401,6.512484680374978,6.2286489888797005,6.269163278083751,6.586716016614617,6.938977373444214,6.888514936912846,6.4720997614824585,6.142346426078777
6.962001487826775,6.527251847347762,6.151218569956104,6.145672753450018,6.506698397648743,6.924216347285713,6.910974104275401,6.512484680374978,6.2286489888797005,6.269163278083751,6.586716016614617,6.938977373444214,6.888514936912846,6.4720997614824585,6.142346426078777,6.0935617048077,6.397973250442577,6.928826430564178,7.14159490986403,6.824327919895807,6.34964507353607,6.065088610024601,6.144969261171528,6.511477746518724,6.856302538540927,6.978803547141763,6.7182430725108695,6.231860991954941,6.198347112167483,6.680113711491495,6.883645144627939,6.573995563559276,6.2428965674118935,6.212943923053768,6.559430659989982,7.019722061108987,7.000293356473093,6.460823493003053,6.012181246715002,6.073650784696103,6.606857726819775,7.10649635390756,6.994495964744104,6.4676748614273345,6.13389716708521,6.161051459444423
6.862281138979088,6.899376402335333,6.626935717396562,6.38789272567483,6.296823055927757,6.447327176080601,6.731704583885496,6.713278187778056,6.414331617238218,6.301760839400498,6.486549437797598,6.769752415355065,6.947447647803023,6.796957677781095,6.310976270133613,5.887760795846631,6.068132434918021,6.853872360517954,7.366416173844584,6.972610830548359,6.247779414230841,5.9556044287747945,6.155078819467042,6.619681770040143,7.00477796179866,6.940515846350085,6.546185494127312,6.24612711559516,6.215290347923042,6.442761117998668,6.767591521195481,6.8660695835378105,6.662996481524668,6.389016259949895,6.269503397674315,6.420238802383495,6.689214924713033,6.752392942349054,6.58744761144529,6.437554232886289,6.434637933861633,6.573870311452381,6.725706299106478,6.689813825616902,6.471699286469893,6.259772413032527
6.752392942349054,6.58744761144529,6.437554232886289,6.434637933861633,6.573870311452381,6.725706299106478,6.689813825616902,6.471699286469893,6.259772413032527,6.234918050074716,6.537844376148994,7.000318473375106,7.10085428037183,6.658860231915235,6.103278096246623,5.873293334620358,6.131284746975099,6.802561549847347,7.355592921984404,7.157350172890412,6.40391220295153,5.92305398431524,6.092717773960637,6.575913185463555,6.844704308154415,6.746326600148573,6.530760134322954,6.414159990170016,6.4893981694713405,6.706750859586288,6.759193317253025,6.510318951622376,6.250548408164527,6.2481602635268985,6.527539360871034,6.899180052198578,6.96819868370679,6.601563764838445,6.192299023950403,6.130649246531997,6.4507039693021095,6.873688050240805,6.966525038260068,6.647817695239017,6.274322370360585,6.126318219686029
6.4625697639278945,6.599592188210411,6.71367748401284,6.705534312859004,6.6139698373627205,6.512919710281878,6.406556321780904,6.335531262783281,6.386627471466433,6.563201496055116,6.768118086000633,6.868357888624678,6.772181728470975,6.522453787168812,6.245624927206159,6.065973309665072,6.214055634378425,6.772253278259538,7.1745107513112725,6.895691235803244,6.381045973388948,6.252006963512445,6.416790333451641,6.551318744078693,6.563272098425007,6.519848752328657,6.5362776251552415,6.616016643544787,6.65622061986623,6.625383116309873,6.550364962693081,6.460067252602772,6.416014891194317,6.474992252232621,6.5954795253586775,6.657211689246904,6.613810401155445,6.517734018399028,6.465064337018831,6.51406447055794,6.58710195408383,6.623438138217751,6.628335134606655,6.542031325644383,6.420058513395822,6.429530052565523
6.784579615870796,6.840756638076861,6.612227802898082,6.297551176475065,6.318003398622443,6.600562470363428,6.752094945189686,6.654751328008364,6.375747994176686,6.210988479089977,6.489470673049502,6.9456803243235,7.069008363085641,6.730662718255403,6.1047657475461365,5.691083541926188,6.0758119294205395,7.038910107265894,7.569961032387174,7.11886791941768,6.19110949824695,5.687560797658964,5.998247340639192,6.6905001257678505,7.124926719148863,7.051576471619538,6.562934065361901,6.104651644172242,6.154424751026744,6.563456761897016,6.867294146296672,6.858871346666301,6.523059822537551,6.179778781173801,6.288485355637001,6.691371559060305,6.8901303251573855,6.758496522426577,6.438909687636554,6.202648021572454,6.30327865442463,6.61389433762475,6.843768253667732,6.85888382846553,6.60317380868969,6.258896672033226
0.4615491606702508,0.5418470542301143,0.38302779288614797,-0.025033535291982045,-0.577571363970325,-1.0308459558715346,-1.0696595291047237,-0.5717325216674691,0.1906849135248092,0.9048821387646693,1.6006351705935764,2.1470897239302897,1.7448977678724333,-0.42234739764113316,-3.8061831711659684,-5.331497451055368,-1.8000382259632384,4.045993460598259,5.395453271999096,1.516132075263925,-2.1126294839461575,-2.6923010758929107,-1.9120443651906727,-1.2894065126496213,-0.1818018141955431,1.6098116158717395,2.482528591331179,1.6288584558575394,0.10462688799559072,-0.9686175009311315,-1.2981106256543944,-1.0598734209273848,-0.5496393139011355,-0.0035797650347650922,0.42865728029443917,0.6237700430941201,0.5248417546298683,0.22494449827938623,-0.10082573414163148,-0.32192119340238456,-0.38368947183635677,-0.30201464039644405,-0.1501596558129186,-0.000615210737252625,0.11007615411152796,0.15773102790495327
0.4737343189882183,0.7601109055566332,0.7857195797966099,0.4391733824559667,-0.14757023370171618,-0.6349078848171462,-0.7395128270446742,-0.4646858575646449,0.022164705307901156,0.6218864464765617,1.267153908975318,1.7783673768151544,1.8164693353704147,0.8992336783379828,-1.2751519516640268,-3.78970528790713,-3.761581248824614,0.5435338565286187,5.2041122077421,4.7592040077865505,0.17674116741306278,-3.3128048061300177,-3.290942307802996,-1.169082279434987,0.8086110840950029,1.6663201490041826,1.692999285096781,1.347593407141147,0.739470609641933,-0.048795579341772255,-0.6831601380442303,-0.8347302719798642,-0.5216605005166256,-0.012951883088703209,0.43598352454989064,0.6754007575751306,0.6710223491452825,0.4874544161016432,0.23989343247347866,0.027971443816928065,-0.1045484855873482,-0.14121791203459383,-0.06093920819333225,0.1155243561789503,0.28750618487104396,0.36226236676527984
0.734824513208109,0.9780368009267503,0.9587650453442081,0.5650081701723335,-0.1591787177700632,-0.9499149766162776,-1.3777032302420975,-0.9509293378577506,0.4552795119301676,2.016799100589166,2.5679893038490116,1.9261019384005553,0.6000170712791606,-1.196026375830841,-2.954563755024146,-3.266017536386726,-1.1346978050236425,2.4889366040235945,5.003622890446516,4.287425230202132,0.8662793136962748,-2.64553802622489,-3.9542212890196917,-2.53046479857309,0.23938843204066362,2.289799745933887,2.6388452608102995,1.7318484134835415,0.5110042920253927,-0.38987669355328847,-0.7809834091991377,-0.7407588634942549,-0.4311601829363842,0.02737092490647708,0.5094812257788135,0.8284907467259737,0.8549009328654524,0.6363029198957064,0.3397260781604251,0.08348226581408169,-0.1031365872048503,-0.16401997327275447,-0.036628191427538426,0.19476629706953236,0.37090099236914253,0.45518414206689994
0.4552795119301676,2.016799100589166,2.5679893038490116,1.9261019384005553,0.6000170712791606,-1.196026375830841,-2.954563755024146,-3.266017536386726,-1.1346978050236425,2.4889366040235945,5.003622890446516,4.287425230202132,0.8662793136962748,-2.64553802622489,-3.9542212890196917,-2.53046479857309,0.23938843204066362,2.289799745933887,2.6388452608102995,1.7318484134835415,0.5110042920253927,-0.38987669355328847,-0.7809834091991377,-0.7407588634942549,-0.4311601829363842,0.02737092490647708,0.5094812257788135,0.8284907467259737,0.8549009328654524,0.6363029198957064,0.3397260781604251,0.08348226581408169,-0.1031365872048503,-0.16401997327275447,-0.036628191427538426,0.19476629706953236,0.37090099236914253,0.45518414206689994,0.47649610813872095,0.40381461968898785,0.23817965624599313,0.09184678990182449,0.0584398919194485,0.10504510546356646,0.16592930316890125,0.2523663901341064
-0.11657996738180376,-0.6042482141137816,-0.8056987942829612,-0.7304403892892979,-0.2315112720255128,0.5682328507100567,1.1231370319206329,0.8496729755030028,-0.24455950494457834,-1.1040652873982237,-0.688966810796233,0.5256875958448547,1.3153582161476782,1.010575226675416,-0.7468647437225953,-3.0183154553653346,-2.494414087491421,1.7241162622506478,4.57307953786384,2.5511237825339697,-1.0926785305842257,-2.7678455771465855,-2.393403877423487,-0.8286737419347759,0.9811092219124684,1.845481488220016,1.390830870845269,0.32492295241266156,-0.5083114309687877,-0.7960404975460675,-0.6653119246861967,-0.3363303354367987,0.03358060653541428,0.3221484263547879,0.44589986630772094,0.3902475621234156,0.18284588986259642,-0.1324600274013203,-0.3709095463167756,-0.2215421412164545,0.21044529332597461,0.3289232940137848,0.00018544717015379908,-0.24202288245418338,-0.1302574914075748,0.0843817950360671
-1.4999523503286298,-1.609405657429473,-1.713365778715102,-1.7422872486518344,-1.7751692816128166,-1.8465862716549806,-1.8906929524029725,-1.8373312401101134,-1.6729504179587835,-1.477760566060133,-1.3923045919438013,-1.4718344562388113,-1.6347717014160477,-1.8601370972019664,-2.2221382654139648,-2.4300912607916256,-1.8692980545873792,-0.8686990233998508,-0.7154088909624495,-1.5421070005549327,-2.2148722474273272,-2.2757697262185315,-2.0328956128826894,-1.6978460538258726,-1.4386079837427168,-1.414710968210397,-1.5682271183686554,-1.7183326678685877,-1.792064233635566,-1.8266274231303428,-1.8216064345797172,-1.7482565597871629,-1.6550185993848618,-1.6164387277758254,-1.6255020472172943,-1.6509381359827013,-1.7182037574224356,-1.8076777674494628,-1.817724244372399,-1.721690112889868,-1.6294858010916844,-1.6605184984557084,-1.7498242936518849,-1.7122719808544147,-1.5937540002253074,-1.5965018006870206
-1.7498242936518849,-1.7122719808544147,-1.5937540002253074,-1.5965018006870206,-1.6971007009262478,-1.7729840327395199,-1.8332459177994995,-1.8719235625848876,-1.816204763140172,-1.6692857983435965,-1.5102399548127032,-1.407831399044969,-1.4343822132860171,-1.6495110874202537,-2.028989932635593,-2.4012488334458046,-2.302408333654273,-1.4374728894451823,-0.6365081969183316,-0.9771802554596559,-1.960101544986707,-2.377665155349743,-2.1369926378674595,-1.8183741213339513,-1.6146962180295898,-1.4398789561369476,-1.3727357800385096,-1.5386130194613556,-1.8175307030858618,-1.9869480502326948,-1.9443723177070038,-1.7183814226295437,-1.4891273175543958,-1.4802199632886526,-1.688081172072583,-1.8745923157355961,-1.864201119221848,-1.7177257248107334,-1.6049673262699824,-1.5953443187760918,-1.6419475048594174,-1.7227837774363604,-1.8184076843753127,-1.8321204130480138,-1.7343809960542473,-1.6279215014237145
-1.7343809960542473,-1.6279215014237145,-1.5846324981875513,-1.5897585115281494,-1.644970914778031,-1.7680217923428676,-1.892579051010579,-1.9095212368490668,-1.8087989345910278,-1.6651879515490875,-1.5000339161720546,-1.338714769697491,-1.3469880212151457,-1.664646655689336,-2.1893422705288312,-2.55101834695959,-2.2189870671373617,-1.2049716456013984,-0.595235377260515,-1.1656134204925204,-2.0826808590895602,-2.301634711741653,-1.9957614915666504,-1.753234098663526,-1.6489429906039916,-1.5330546637294913,-1.4650882531889513,-1.559858372404721,-1.7339530702000674,-1.8477127352505218,-1.8820525843713989,-1.8462003336111001,-1.730631456996163,-1.5953584122397446,-1.5355660303198655,-1.5742799553058657,-1.6758037197033133,-1.7922361359293677,-1.8611617004862009,-1.8081195696146766,-1.6516886033159501,-1.5850126369156625,-1.711507577981591,-1.8361699206118327,-1.7696935662095918,-1.583081802939667
