-1.7554026840385384,-1.7553982772397334,-1.755394112931878,-1.7553901914616792,-1.7553865131753206,-1.7553830784195683,-1.7553798875410394,-1.7553769408861868,-1.7553742388013567,-1.7553717816333156,-1.7553695697286846,-1.7553676034336338,-1.7553658830949925,-1.7553644090593337,-1.7553631816730029,-1.7553622012824759,-1.7553614682345398,-1.755360982875671,-1.7553607455522675,-1.7553607566110299,-1.7553610163983215,-1.7553615252609491,-1.755362283545237,-1.75536329159761,-1.7553645497647326,-1.7553660583932644,-1.7553678178298573,-1.7553698284204615,-1.7553720905120542,-1.7553746044513694,-1.7553773705844604,-1.7553803892579674,-1.7553836608186881,-1.7553871856132146,-1.755390963987841,-1.755394996289106,-1.7553992828635634,-1.7554038240576042,-1.7554086202180044,-1.7554136716914992,-1.7554189788241423,-1.7554245419628662,-1.7554303614538118,-1.7554364376439267,-1.75544277087939,-1.755449361507048
-0.01702014773381955,-0.018362734904507395,-0.017957012681200563,-0.01701789934503915,-0.016441447072847244,-0.016098916745299556,-0.017517303780051414,-0.02013247946514172,-0.020021711152229293,-0.01661122772961912,-0.013665228975929825,-0.01335405270660716,-0.014249573837160936,-0.015971626590242215,-0.021557080497789476,-0.02893432656781396,-0.02566771584470722,-0.006922859912529568,0.005014376569241953,-0.011524159268168657,-0.03539342707595527,-0.03404337550858907,-0.016021926970304922,-0.006463309419286529,-0.008668656995460105,-0.014956274699568513,-0.020793395579853158,-0.02315530749492728,-0.021039129125586142,-0.01671663097139825,-0.013583177539576365,-0.013618470080615487,-0.016413085440759315,-0.01885318452929981,-0.01833613815778065,-0.016965954871990502,-0.017278011180257888,-0.0179050030757376,-0.018167853063229374,-0.018947811102773,-0.018034215837976816,-0.013718338651101539,-0.010903145460659009,-0.014536377630824673,-0.021239481238731036,-0.02438345924614758
-0.010903145460659009,-0.014536377630824673,-0.021239481238731036,-0.02438345924614758,-0.021297693575205858,-0.014391941061959058,-0.010647175197703179,-0.014914386259238521,-0.02151748911366398,-0.021644264796971246,-0.01569469155069035,-0.010191700174260175,-0.010858930315492798,-0.018007386201739407,-0.025518903498894078,-0.02977662025682704,-0.028293426928659722,-0.012916472294692291,0.00981142757350133,0.008531644973581633,-0.02478814294200931,-0.04894409072334307,-0.03593940056819689,-0.010437890958578593,-0.0015629236821601842,-0.007848896125467497,-0.016591830202948445,-0.021265075101873497,-0.0211661690468433,-0.01888218488547535,-0.01738159815168726,-0.017464908403995453,-0.01754864050862446,-0.01595532308285503,-0.013428095802696481,-0.012909398535505424,-0.01664401487353193,-0.022331308741111,-0.024706953659333966,-0.02200693707199733,-0.016031823145562143,-0.009000976915236596,-0.005917757900053612,-0.012112613643462142,-0.02328453040336988,-0.028517303401488083
-0.005917757900053612,-0.012112613643462142,-0.02328453040336988,-0.028517303401488083,-0.025234841270024025,-0.019126565045159062,-0.013602723996912574,-0.010003359765951016,-0.010182447075780723,-0.013150178652668702,-0.015439417717926712,-0.01706814220902199,-0.020915846410388315,-0.026582349736333086,-0.03064372209353509,-0.02768915442324295,-0.012087267522154548,0.010119650247470573,0.014005636967628148,-0.015812331885029556,-0.04956049544056817,-0.04783732650873922,-0.02092426312385312,-0.004358887031325234,-0.005529369116793768,-0.008754904242705726,-0.008008254468532061,-0.012844106550273345,-0.024516707375307475,-0.0298226134508601,-0.02507348475343343,-0.019149981338351395,-0.01557242219234249,-0.011705633490405229,-0.007910543572756217,-0.008712313061323347,-0.016337758226399983,-0.025417883567146717,-0.028352022010035786,-0.02339372012229174,-0.01460117417508654,-0.0087685117564821,-0.010076009379668825,-0.015553770141527277,-0.01997349386854701,-0.021111068187197504
-0.017147881264554042,-0.012746921347737292,-0.010891815639205115,-0.01484373894222588,-0.02057105101979679,-0.022473873041086816,-0.02064541364647025,-0.017361808310442983,-0.014675325753604857,-0.01502554563977257,-0.016773287163483325,-0.014954505214481856,-0.011462632265879456,-0.014247115536490901,-0.024114370409828206,-0.03220151565410079,-0.02869870570167001,-0.010155858613186974,0.010226988547920842,0.00456001475450281,-0.029294074206058583,-0.0491326111086365,-0.03018037204215837,-0.0044143064856544696,-0.003646339933333454,-0.016031832201587628,-0.018986063425177554,-0.013424805268435347,-0.014152919774583966,-0.024386600369009484,-0.030218785588856413,-0.021083411284965818,-0.005748539630359701,-0.0009368003866244735,-0.011637399157670793,-0.026658063917458404,-0.030647119622235746,-0.02239948433658904,-0.014644121002159892,-0.012234315973804616,-0.009070742465214048,-0.007379826949906231,-0.01572902427524944,-0.029282685921059596,-0.03226801820397059,-0.02004499357616829
-0.029282685921059596,-0.03226801820397059,-0.02004499357616829,-0.007707824291715965,-0.01012830665217805,-0.01897206026171034,-0.017110125061064678,-0.010104186463012393,-0.014359998866765467,-0.024845223245998565,-0.026543529564809338,-0.018639345764991887,-0.009600667261070664,-0.008223366585786845,-0.018886692851075075,-0.03391573986159546,-0.0326584482780362,-0.004266774457104675,0.02075734597605526,0.002661791933772851,-0.03956611601182615,-0.05464921607889378,-0.03561901161646688,-0.012180585448201147,-0.00028097411351069544,0.003586383551611449,0.0019650697618161968,-0.00927874073966272,-0.03056781762228275,-0.04888372491913709,-0.04530900785178034,-0.018415079685099638,0.009459468568733642,0.01507310832526634,-0.00357284215012579,-0.026981282771489874,-0.036319081778168595,-0.03189647807791709,-0.022942276316719468,-0.014387924605378787,-0.009624784586889465,-0.009916643192116686,-0.011883686276743828,-0.01382265940547803,-0.01761084615738425,-0.02235007323738141
-0.03391573986159546,-0.0326584482780362,-0.004266774457104675,0.02075734597605526,0.002661791933772851,-0.03956611601182615,-0.05464921607889378,-0.03561901161646688,-0.012180585448201147,-0.00028097411351069544,0.003586383551611449,0.0019650697618161968,-0.00927874073966272,-0.03056781762228275,-0.04888372491913709,-0.04530900785178034,-0.018415079685099638,0.009459468568733642,0.01507310832526634,-0.00357284215012579,-0.026981282771489874,-0.036319081778168595,-0.03189647807791709,-0.022942276316719468,-0.014387924605378787,-0.009624784586889465,-0.009916643192116686,-0.011883686276743828,-0.01382265940547803,-0.01761084615738425,-0.02235007323738141,-0.024017449634446963,-0.021142803333643555,-0.016410060842104817,-0.013703514385858392,-0.014726349438977934,-0.01752033905908485,-0.018008755521426185,-0.014166649330072502,-0.010002200379439379,-0.012564671652306899,-0.021907736612794684,-0.03015477295307864,-0.03150814244101359,-0.023037603658900785,-0.0033472531346324047
-0.01382265940547803,-0.01761084615738425,-0.02235007323738141,-0.024017449634446963,-0.021142803333643555,-0.016410060842104817,-0.013703514385858392,-0.014726349438977934,-0.01752033905908485,-0.018008755521426185,-0.014166649330072502,-0.010002200379439379,-0.012564671652306899,-0.021907736612794684,-0.03015477295307864,-0.03150814244101359,-0.023037603658900785,-0.0033472531346324047,0.012669727651851356,-0.00016014832758292144,-0.032264413365727086,-0.04404441247509412,-0.02992832044733343,-0.015814784475075352,-0.0096845344625865,-0.006765363700041035,-0.008373547856456264,-0.014404989519051652,-0.020241144067308318,-0.022920901058447008,-0.0232198092647932,-0.02190663106277721,-0.018129597852493032,-0.012510894938285015,-0.008810099742546491,-0.011077179769109166,-0.017955018580326394,-0.023563196610028585,-0.024584470885679582,-0.02080665388316194,-0.014114746269054944,-0.009852084112074097,-0.012084190916195413,-0.018608507147761466,-0.023025481423002942,-0.020876853400019484
-0.012084190916195413,-0.018608507147761466,-0.023025481423002942,-0.020876853400019484,-0.01517662676307979,-0.01286790953629369,-0.015524275637814819,-0.019781339960727867,-0.02243436856651757,-0.019867968474142423,-0.011762187624008026,-0.006390404559566654,-0.011392945196529496,-0.023482684313306173,-0.03356172632545472,-0.03274421913844601,-0.01504500476851883,0.009795525817800077,0.011865599460765127,-0.01979657837242281,-0.04831100169955998,-0.042196325090733684,-0.01875614233657704,-0.003658180438516688,-0.0004150548422383099,-0.005078186282569997,-0.014621716522265266,-0.024701068199472508,-0.030397181939459898,-0.029260199068787827,-0.021439532256450705,-0.009421144838972096,-0.0011919015505797948,-0.004448248372542972,-0.016457436164445463,-0.027776252211545248,-0.03111730295742234,-0.024893884131107706,-0.015159509969426672,-0.01014271447690911,-0.010108420445497809,-0.01131810139203357,-0.014589659679957217,-0.0202575594147413,-0.02432600959444307,-0.023097101669001176
-0.010108420445497809,-0.01131810139203357,-0.014589659679957217,-0.0202575594147413,-0.02432600959444307,-0.023097101669001176,-0.017677334377695968,-0.014144853048835877,-0.015124736999669836,-0.0160725996236303,-0.014201838940381161,-0.012780701856901566,-0.014912661398026467,-0.01910131149873188,-0.023423374083119092,-0.027658672382225465,-0.02687521450022376,-0.012976161476275725,0.005598327955957043,0.0022702289378197637,-0.024550671469610985,-0.04020016340634381,-0.029627808642434115,-0.01340778505242585,-0.007082122015792796,-0.009316641199513183,-0.014648914972995884,-0.019016956584911888,-0.020994923875095085,-0.020341493289288387,-0.018555423055662032,-0.017826031506561077,-0.01767720402212949,-0.01630276002752426,-0.01272659501567993,-0.0098579878408673,-0.013666233160636896,-0.022999083211926993,-0.028611693723873864,-0.02567592084799417,-0.01731955092781497,-0.008292559431063306,-0.003893615316393249,-0.0091864737110334,-0.02112994512758126,-0.028283273768040115
-0.0091864737110334,-0.02112994512758126,-0.028283273768040115,-0.024994125299775745,-0.017500945837851854,-0.013350502015343409,-0.014336907665405563,-0.018223788461687342,-0.02044644592121259,-0.01681364161211704,-0.00829632324042711,-0.003196943888944242,-0.010523254303796276,-0.028818819949238322,-0.04545750056850257,-0.04372254176934983,-0.013910128734889761,0.023841439163602422,0.025554730083030355,-0.01499091360563437,-0.0500224304115601,-0.049974405076291556,-0.031091234665841672,-0.011390820057640503,0.0020422692523198475,0.002829451758476869,-0.007530403979569063,-0.019341163387501817,-0.02614290192429625,-0.029024220339147963,-0.028753130020743773,-0.021983974095363727,-0.010354287961566098,-0.003297979898570122,-0.007124716747053304,-0.017284236700525635,-0.024589237392978115,-0.024569380725046528,-0.019576633571341675,-0.015510374805234244,-0.01476152334381074,-0.015425366784990577,-0.017037128829287967,-0.0188741724394829,-0.01812217747415599,-0.015095366516501828
-0.017037128829287967,-0.0188741724394829,-0.01812217747415599,-0.015095366516501828,-0.012905692099848773,-0.012980223117088636,-0.016910575301709523,-0.025137908355738415,-0.03034189552511559,-0.023172910346371797,-0.00659221585281763,0.0035808206905501394,-0.00432567957388932,-0.023668168099102133,-0.03842598312222031,-0.03929010175188889,-0.022565316077456116,0.005158643611410286,0.015032208486932423,-0.011220766924977591,-0.04161272979014887,-0.038887844806860083,-0.016747429537115874,-0.005065376805369238,-0.0072806952828768125,-0.01470753706896467,-0.021411524675069193,-0.022929705512818793,-0.018869909226019693,-0.01479594675450421,-0.015771770633553797,-0.01929847888523349,-0.018952301107412108,-0.014184957364181303,-0.011663461534735894,-0.014761249871981845,-0.019706665674433667,-0.022693929296846275,-0.021747458688741218,-0.01711528772903244,-0.013608286630446238,-0.01445904482354175,-0.015568602758428115,-0.014180435670084823,-0.01537965515899858,-0.02059817319027364
-0.015568602758428115,-0.014180435670084823,-0.01537965515899858,-0.02059817319027364,-0.022417751845837084,-0.01858741178287028,-0.015779876832954447,-0.017344050730537512,-0.019580069691905705,-0.017854292419318206,-0.012016142704339962,-0.00788514064774935,-0.010614546162792678,-0.01862785281593749,-0.02857556767663205,-0.03599773981003636,-0.030457150746450758,-0.006830359735100299,0.015585825290155416,0.006203102962454637,-0.02852614881734024,-0.045548916391842706,-0.03171679925857317,-0.014589326138357442,-0.009585230447153413,-0.01011346913352341,-0.011215108628867158,-0.013224456873391344,-0.01673880492148873,-0.021177483463303115,-0.024033205374729624,-0.022960308237759342,-0.01820212781599123,-0.012615557915007297,-0.009988773697607749,-0.011913145111764133,-0.017225893994404606,-0.02262934548585941,-0.02349241934094905,-0.019588907685561638,-0.015384415719146317,-0.013436216789197774,-0.014313039920769873,-0.016563963733396695,-0.016310116817455575,-0.014568243191787206
-0.013436216789197774,-0.014313039920769873,-0.016563963733396695,-0.016310116817455575,-0.014568243191787206,-0.016885715980050876,-0.022327707299233453,-0.024605644191157957,-0.02144327769506265,-0.014239976375488388,-0.007192550731683986,-0.00706930768367257,-0.014194299576922385,-0.021478462699721004,-0.02651428057367247,-0.03119569391810801,-0.029574952863185282,-0.011751439826855238,0.01266702052810044,0.010775686845582836,-0.025458185825320792,-0.05211151730482837,-0.03764708279616223,-0.008974435705545857,0.00048084246968419517,-0.007233396484461993,-0.01693135939760986,-0.022037203136444826,-0.022258478687050318,-0.019154828600943283,-0.015959048964777234,-0.01584806429719181,-0.0176528504337724,-0.017136286860067622,-0.014418182651307726,-0.014411933464850766,-0.018729523628152528,-0.022483458970666004,-0.02039474012328341,-0.014067099146550714,-0.011023697197643968,-0.014981991260467002,-0.02042340451811656,-0.02067523927959436,-0.017235483821621024,-0.015373904287446807
-0.015340898278615104,-0.014859625245828904,-0.017456274180649555,-0.020574784379746688,-0.01962662317168205,-0.016536905068475778,-0.015284989983661136,-0.016246957054030505,-0.018161283434267726,-0.019533617346040498,-0.018077608635189438,-0.013184759168912966,-0.009202472825121131,-0.011881529818432556,-0.022665485010455344,-0.03470642340518161,-0.03321148002918002,-0.01159601599759125,0.00969990610834778,0.0022045979379095564,-0.02509006152681873,-0.037219004481358266,-0.0275701462729901,-0.014813366613550196,-0.009330644817386125,-0.010612506691649058,-0.014092640925718596,-0.015875675204351573,-0.017642460236106362,-0.022138190846038217,-0.025837186541036186,-0.022524543874982535,-0.012881031969341055,-0.00603896360969718,-0.00968272238110463,-0.019522809296220335,-0.02478619095187903,-0.022237344007542795,-0.017044520192299076,-0.01515056747455817,-0.017011439687570212,-0.016942899063475417,-0.013563181349065643,-0.013278379885632912,-0.017879089176658876,-0.02130904030654869
-0.01581598154464949,-0.01316943620110355,-0.011901404237257784,-0.014178975236928197,-0.018771719751969937,-0.022096417981232144,-0.021935444127804744,-0.019041143030491738,-0.015843239748768126,-0.0134705476456895,-0.011198771126385735,-0.009768536672854225,-0.01189017773735348,-0.018677824794407865,-0.028368625743600943,-0.034757276961763756,-0.026157663216828313,-0.0016689134306668765,0.013200573028712134,-0.0029168064806576795,-0.030799703098643647,-0.03914286248661633,-0.026979501478207116,-0.01288227029531326,-0.007620844795399701,-0.009939243140621482,-0.014773962307189362,-0.018458759777726153,-0.019001246126285752,-0.016994080018661532,-0.01593901718498999,-0.017710903604151264,-0.019365183237528498,-0.01772012249482651,-0.014864884274613119,-0.014581597023094106,-0.016027974901835308,-0.01656595909700706,-0.016803657375122752,-0.017951096652869872,-0.01845420980232388,-0.016690364347518548,-0.014258423838555367,-0.0142465221448513,-0.01718737000350526,-0.020067150548648
-0.013569097905710783,-0.013026698133302862,-0.014909568913079282,-0.017670619629478326,-0.019144711498476116,-0.01881994690740226,-0.018260058261074852,-0.01821463133695512,-0.017718606520998346,-0.01586065828260019,-0.01257194277647665,-0.009302905583542492,-0.009735250797858022,-0.01738749673115051,-0.03053606149462527,-0.037847994719626174,-0.024590719594849337,0.0033170417686011824,0.014184373978987554,-0.006374217011346158,-0.03253240949197027,-0.038513465450416964,-0.027482411083532825,-0.014326420515627672,-0.007749749641687937,-0.008294799663456979,-0.011926118114316613,-0.015591792021741357,-0.019213174557264318,-0.02223252239998149,-0.022212162326629113,-0.018246915578414742,-0.013132931634745616,-0.011057607540186882,-0.013687677310015262,-0.01861177459133837,-0.02127848925530265,-0.01923998143122732,-0.015206531858561762,-0.01371174358419632,-0.015119631204312308,-0.016578413136146948,-0.01714102897452703,-0.01779615033909455,-0.018371163966124017,-0.017907523646806048
-0.015601949098973103,-0.015540834734215699,-0.015914194856541712,-0.01698275662141545,-0.018127883427500505,-0.018862287554203903,-0.019029542589862808,-0.018519956136429223,-0.017165737413279446,-0.014680505772323773,-0.011287767765189187,-0.008762893538108309,-0.010614697600842793,-0.020162900265961518,-0.0344554247593062,-0.03892679874574467,-0.019286720308854657,0.010782386128814252,0.015118009882834939,-0.013008129032787023,-0.038849283159100294,-0.03852466535693064,-0.023046960663963972,-0.01073311582015376,-0.007296050186228511,-0.009728553862090155,-0.013753097525655442,-0.017054743311944606,-0.019401698162302056,-0.02069312349897831,-0.02018344353113813,-0.0178124766249195,-0.014651004979721525,-0.012722628986371009,-0.014097164177671609,-0.017893345417443616,-0.02009801353816755,-0.018670500591404154,-0.01597873890310445,-0.014803912999109624,-0.015353528638374237,-0.016451350641439336,-0.01696183081840431,-0.01663167727658977,-0.016488240097586503,-0.017492166272738894
-0.013971975061005778,-0.015401247089649017,-0.016310655639865557,-0.016536377882422,-0.017758519281042544,-0.019815704585652225,-0.020403116170764134,-0.018806922094915232,-0.016516037960760815,-0.014158519786789506,-0.01127961548689399,-0.008755688678326858,-0.009901679814588643,-0.018257448932579523,-0.03208007658360798,-0.03980815955498562,-0.026349871036849326,0.0032265843727020023,0.01653067813488374,-0.003554291479761197,-0.03133229457386409,-0.03839409840033965,-0.027630659809768292,-0.015511126539773108,-0.010107609580102591,-0.009816710888039044,-0.010911718974116023,-0.013228350795355127,-0.017818093316691024,-0.022368535728555582,-0.02299834538168445,-0.01905928489848389,-0.014015491899922447,-0.012131666858042494,-0.01442279345676631,-0.017797914971106662,-0.018890480169764953,-0.017527494853309795,-0.015780440226144266,-0.015315463734655544,-0.016187163095554104,-0.017229414798588992,-0.017427125254653605,-0.017235378191520025,-0.017293719373207225,-0.016839351710655953
-0.01728033998854077,-0.014995325717957229,-0.013666173608259119,-0.015594179936397817,-0.019148929648995276,-0.02075148001307224,-0.019308302394815624,-0.01657765048543414,-0.0143982180834802,-0.013360249883349735,-0.013380160994504531,-0.013840518097503009,-0.014582108221410385,-0.018151653021499972,-0.026241722622589378,-0.03179664399520259,-0.022066093285363318,0.001109357575305182,0.011337171758388893,-0.008300003169659193,-0.035618227358025244,-0.042215339765310875,-0.02868945558272623,-0.011911658401495787,-0.0035489888506372164,-0.004260999417355294,-0.008643174398951658,-0.013844098839376977,-0.02099089343024821,-0.028570427766540715,-0.030171433179061753,-0.02213413002300801,-0.009512881231381363,-0.002042984686557486,-0.005192787965938173,-0.015588414229148945,-0.024903762952818195,-0.02692348954452113,-0.02201677021074419,-0.015796695393524008,-0.012915882528508778,-0.013197596314927076,-0.014126965941796773,-0.014989313869116212,-0.016451771980893228,-0.018583808792263665
-0.011382828896121066,-0.012236789789252779,-0.0170344439968673,-0.020708696064244934,-0.020363261077569847,-0.0166011398544302,-0.01346167328598205,-0.014915334145257428,-0.0194613493428034,-0.021013192636744796,-0.01590174405672609,-0.00807696630919582,-0.006584401718052548,-0.01666014038577682,-0.03274364624157828,-0.03880817758347705,-0.021148738335709197,0.007446337657459657,0.012788677253627676,-0.012331318123406064,-0.036246111347081285,-0.03688966695002836,-0.02363706122431456,-0.01218737432087348,-0.008070516894008128,-0.009751655280313208,-0.013311853043743388,-0.015905360422744173,-0.01779808481905007,-0.02011266094319255,-0.021660621458584897,-0.020248848988926055,-0.016155843668502923,-0.012613739994075295,-0.012739208043752727,-0.015899285250498336,-0.018309720064073793,-0.018123969170384606,-0.017181982663688602,-0.016892644731587303,-0.016432402020121275,-0.01553405489778712,-0.015434921949761636,-0.01708371619421972,-0.0195389909484931,-0.01975565804714792
-0.013776524889375533,-0.017464238650938428,-0.018234127612237014,-0.01639250806353826,-0.015769394632505138,-0.01719514836868384,-0.01918462424393269,-0.020437493525210043,-0.019373763700024253,-0.015652479459224926,-0.01130882622527116,-0.00849039543289383,-0.009335543792183062,-0.016205035977151627,-0.027899882587820814,-0.036777580584743064,-0.030822509788095427,-0.006676670340564857,0.014120449073350578,0.005046514582710599,-0.024188975115525826,-0.0401680926957757,-0.03262687234371981,-0.017550619586543525,-0.009006721672762322,-0.008363452561984891,-0.011439294589441639,-0.015106211720879616,-0.018174000575867596,-0.020306984672612355,-0.02087051650314991,-0.019094156504333222,-0.015613775708859155,-0.012881103274092282,-0.013421848677055434,-0.01670081730415627,-0.019215681169306657,-0.019160479269575207,-0.017819084516137,-0.016338971053048906,-0.014812111529913059,-0.013853369908133788,-0.014616073974119029,-0.0172454164446295,-0.019962466533491013,-0.02016003591579646
-0.015418319955387654,-0.015493453507929428,-0.017119330617381082,-0.01850136089295417,-0.018029923109409027,-0.016866544440286062,-0.016791145518017463,-0.017968959480587375,-0.018803359506288503,-0.01701529647588519,-0.01239965069822559,-0.008373020937342757,-0.009610488222328973,-0.018410881918406348,-0.03170804899455927,-0.037925620336553015,-0.023166407867575838,0.005117859069809497,0.014249793295591097,-0.008846957574583224,-0.03488587078122445,-0.0375502088132263,-0.02458923744014061,-0.013228755454616492,-0.00854821142676071,-0.008447283932233214,-0.011444571106969304,-0.016741932989694785,-0.0216786677045883,-0.02287339725268235,-0.019972401570741212,-0.015764824716397452,-0.01307818290050972,-0.013238426339955995,-0.015545747143197123,-0.01793298175983466,-0.019170458855592966,-0.018885298990425882,-0.016956444483951356,-0.014846788547655391,-0.014723536350687733,-0.016175231274859543,-0.016890098062803435,-0.016523434399949147,-0.01663611250782556,-0.01765564207214329
-0.015936405844868003,-0.015075530751653684,-0.014200354874541375,-0.014020686564755908,-0.015628146426698686,-0.018752320839965343,-0.02145338738444258,-0.021726986905794228,-0.01915390721669572,-0.01521397513496933,-0.011841666313037125,-0.009581012081014544,-0.008535127899198483,-0.011583139131765799,-0.022654375841896373,-0.03752216927934526,-0.03889554247929116,-0.014597198575174828,0.013911925446239787,0.010820654847420164,-0.01907864634738161,-0.03853247178648988,-0.03363840081145093,-0.01961592791331339,-0.01066134699756808,-0.008985412454596158,-0.010823036891620171,-0.01373501066884265,-0.01757925062257582,-0.021126117261752134,-0.022013738904372006,-0.01927293570161339,-0.014797658073870379,-0.012234011533186545,-0.01346396381889505,-0.016916574971471872,-0.019442818350676364,-0.019266109966520506,-0.017369320559135003,-0.015778853463857653,-0.01527379150613716,-0.015367601280211538,-0.01567466270997636,-0.016558065648600406,-0.01784071588205118,-0.018359220421269168
-0.01564904112163948,-0.014804564497213102,-0.014635875532656915,-0.015849822376952795,-0.017745847489466823,-0.01862503900718203,-0.01820363002753923,-0.018010789033142443,-0.018646520200355905,-0.01801659081370033,-0.01447444623029887,-0.010271764107059426,-0.009296435929573977,-0.013304147798449538,-0.021503965845880393,-0.03032053359891053,-0.031002703461148164,-0.015946933937765823,0.0030184411653363507,0.0019547079982210735,-0.018130708332118887,-0.032539129286397114,-0.030471650570591542,-0.02074969737810406,-0.012488748544337276,-0.008524590502000424,-0.008755879206402032,-0.012453320274520695,-0.018125496679870134,-0.022743789156331337,-0.023040321204350844,-0.01899843333929977,-0.014277498182666932,-0.012180521217148313,-0.01333931465870111,-0.016306455576258528,-0.01859187544735985,-0.018895984671947152,-0.018096479847603465,-0.016998246722639943,-0.015741690534795426,-0.015132459517532839,-0.015614018981545642,-0.01651017983537612,-0.017292764313181313,-0.01781339153629047
-0.016063143444641992,-0.015312441935661515,-0.015064329981731748,-0.01591252669990724,-0.0170399541315645,-0.01755376575733885,-0.018161390765975408,-0.019367492500633424,-0.019552667150445478,-0.016996304820071965,-0.012622731976918024,-0.00953373492190338,-0.010258597534421899,-0.015541141612623377,-0.02482739796605009,-0.03321659822072104,-0.028416219277470397,-0.006568740056570818,0.008825273929439307,-0.004121506700552101,-0.028191565114652893,-0.03543406371350459,-0.025673069062054354,-0.01404506465866086,-0.009031934274326954,-0.010241898299350956,-0.013542351103702312,-0.016111677310426488,-0.01811462857260232,-0.020021156337535394,-0.020780332760587224,-0.019235146629828274,-0.015755645108612295,-0.012581418612949731,-0.012481844912725661,-0.015731837445752565,-0.019178825589499827,-0.01985035254702805,-0.018029821114044976,-0.01588208602555016,-0.01512359966838195,-0.015957201659579336,-0.01698505473408917,-0.017107944145830875,-0.01691416503747948,-0.0169501929326335
-0.016667494550153858,-0.0159845024584395,-0.015621737813190211,-0.015905898895800158,-0.016727309900556292,-0.017865858032473286,-0.018985423246681146,-0.01962411532530893,-0.018785900593895857,-0.015538845169217882,-0.010761404289259313,-0.007665146036572416,-0.01023595009154367,-0.020107402751033024,-0.03313895316643754,-0.03751382628662472,-0.021373554290990564,0.005594408508764082,0.012222550525984179,-0.01056942573007302,-0.03363735854968231,-0.03470163199936378,-0.02277397406542961,-0.01341836468566186,-0.010329228207037956,-0.010618915848524105,-0.012605005672478325,-0.016036398357698073,-0.019723955877544375,-0.021645592119533617,-0.020501826311520845,-0.01701982328013061,-0.013957641726203647,-0.013603767724270376,-0.015370076033981658,-0.017288778895261918,-0.01825990186109039,-0.01783707376614299,-0.016318035815810154,-0.015164833850622212,-0.015645836707045228,-0.017273747236997358,-0.018449076323613953,-0.01841548588057716,-0.017414211546993703,-0.015828326385354252
-0.014550745498840403,-0.014562734995095538,-0.015589185356764663,-0.01661901894894202,-0.017510912921075827,-0.01876014742638804,-0.019799898806538638,-0.01949986347337135,-0.01787232715959931,-0.0151548320048693,-0.011315101875428075,-0.008278672566960663,-0.00999864369168944,-0.01892007245695347,-0.03209507100490534,-0.03789490046035958,-0.022799326058519344,0.004970770710832413,0.01338762808698563,-0.00904950963202232,-0.03375599503179304,-0.036255995211348424,-0.024197458948613474,-0.013848015009702057,-0.009859483426999327,-0.00998211684081109,-0.012507865650788642,-0.01613354795169024,-0.019063606658653316,-0.020519300991894095,-0.02040371140523181,-0.018051464396362085,-0.014235025292697734,-0.012585487522787838,-0.01518825479434344,-0.01885844224593144,-0.01956085221420066,-0.017654878639819523,-0.015659727756975904,-0.014655399168442418,-0.014873910927934303,-0.01624174195578486,-0.017967849436931728,-0.019013395953333345,-0.0186213287757686,-0.017101887827984382
-0.01478662422516952,-0.014614606966659177,-0.015148029900723788,-0.016412747572868265,-0.01798713945978828,-0.019017344454981523,-0.019143618342471597,-0.01884372384607367,-0.018165387095920072,-0.01598718431507721,-0.011810346217531954,-0.00810967780865016,-0.009272036369465638,-0.01808216649308341,-0.03209080768438219,-0.03909930830308616,-0.023920758184436765,0.00535146834377025,0.014849924376258735,-0.00791540853868826,-0.033943428021034505,-0.037904373501673916,-0.025892236507762095,-0.013811568279308606,-0.008686025953187734,-0.009436972790152317,-0.012372924427729963,-0.015596780911033751,-0.01889615735518637,-0.02114070682074369,-0.020912336753257356,-0.018249301141163854,-0.014561955193121565,-0.01261941636367656,-0.014468300533292682,-0.017958379545360663,-0.019168882192039334,-0.01774239244759148,-0.016306986644593322,-0.016136229659063552,-0.016039416836040973,-0.01536083154018307,-0.015549659391507587,-0.017295262825219197,-0.018784631808869433,-0.01840640669598887
-0.016472728113731752,-0.01531098494663328,-0.013544489458197398,-0.013535700253368409,-0.016496962657222683,-0.020440703994990296,-0.022354829817804886,-0.021244004710253638,-0.01779363497697164,-0.012996269341690844,-0.008442447004871949,-0.0068411012728158745,-0.01100645277954202,-0.02225785863756047,-0.03659193011880171,-0.03943371672337084,-0.017270918957024303,0.01315836725575225,0.014440271772571235,-0.015788584848793356,-0.040210108232963816,-0.0381358160530095,-0.02242658718823815,-0.009908663948845447,-0.00589166857017287,-0.00853740230320639,-0.014039777091654406,-0.018940141866759123,-0.021402217396140333,-0.021446290501257022,-0.019679876262884637,-0.01641824861817615,-0.01293643696773658,-0.012007598375617712,-0.014863693383651037,-0.018734515824893064,-0.01998665984332191,-0.018539165130521756,-0.016741579657376944,-0.015749288494062496,-0.015323844452016799,-0.015353876045605758,-0.015927770264941375,-0.01685835231788065,-0.017815035853559383,-0.018462915471226436
-0.015428582981913797,-0.014872728651899267,-0.015022383988593882,-0.015435237054263426,-0.016282446152440844,-0.017733078694641365,-0.01941631256069242,-0.020493062559992017,-0.019939290895770206,-0.017022303878815565,-0.012252360799912508,-0.008021535242751916,-0.007898409983918294,-0.015028581405897648,-0.02867320649570375,-0.03911269778954814,-0.030440002273951876,-0.0020134583374049452,0.016719461186962957,0.0009139898262602274,-0.029793567734784393,-0.040962786076699835,-0.029868603614183985,-0.015173057847986976,-0.007926927021068323,-0.007988923856572816,-0.011757403564684235,-0.015858618218853895,-0.01892908256178809,-0.021308120117023023,-0.021959873614126893,-0.019107208862039676,-0.014132511556183905,-0.011308032788609994,-0.013293543283048154,-0.01777958584427597,-0.02005504937518038,-0.018931804734450497,-0.016957611472910132,-0.015763466063859494,-0.015169373686384166,-0.015315293225307707,-0.016316201202055035,-0.017271076557461768,-0.017684483927101077,-0.018121235398831176
-0.03104946689866718,-0.02926622422276739,-0.02324284734034151,-0.01757050144438909,-0.014578792456372166,-0.01547899849779346,-0.019943226985864607,-0.024841760634612572,-0.027681938310067936,-0.02760172809098012,-0.023312495594392375,-0.016214527652095603,-0.012814265935350674,-0.01846892436626462,-0.030979160943181656,-0.04113949429976202,-0.03631417310938541,-0.011764355799405933,0.012293643303225747,0.004070892335525267,-0.033258833324523056,-0.057701502275003785,-0.045538349956063304,-0.017192766707950502,-0.0012655330073926274,-0.005045332610153013,-0.019548824274501667,-0.032163328908776906,-0.034881062992748825,-0.02863013563510064,-0.01979053505251343,-0.013342181136315126,-0.011042785714156834,-0.013267316643235324,-0.019982979413121757,-0.030674583353840393,-0.04220520463285173,-0.04506673210720283,-0.0280030477359876,0.0034437671295800484,0.01984062183147134,-0.0006306822564720593,-0.040178212438737294,-0.06182497637058762,-0.0509757464567661,-0.022795158482905732
-0.045538349956063304,-0.017192766707950502,-0.0012655330073926274,-0.005045332610153013,-0.019548824274501667,-0.032163328908776906,-0.034881062992748825,-0.02863013563510064,-0.01979053505251343,-0.013342181136315126,-0.011042785714156834,-0.013267316643235324,-0.019982979413121757,-0.030674583353840393,-0.04220520463285173,-0.04506673210720283,-0.0280030477359876,0.0034437671295800484,0.01984062183147134,-0.0006306822564720593,-0.040178212438737294,-0.06182497637058762,-0.0509757464567661,-0.022795158482905732,-0.0014437734618271345,0.0005673883229293918,-0.011070395282932273,-0.023647581507083876,-0.031023115365536657,-0.03295455426211004,-0.029107757606939216,-0.02126840810153066,-0.015566521536053975,-0.015734999107014945,-0.019054461757295728,-0.022343572403983485,-0.026132084942092577,-0.030460968589701373,-0.03032618779977109,-0.020101984353271006,-0.006495836986624493,-0.007202304868323577,-0.024210075718293183,-0.03681876317371099,-0.03296268425879714,-0.022743427264015955
-0.0004938302367984543,-0.010295740181984566,-0.02603665632909988,-0.03684880092847334,-0.03834080028626251,-0.03171099216553161,-0.022034975586038487,-0.016267405260433444,-0.015891257670761386,-0.0160991074351338,-0.014344459164320013,-0.013573378500535097,-0.017640418606933883,-0.027516302323894137,-0.040160197944827385,-0.047324799429357245,-0.037267776565435506,-0.008725308065402462,0.01553869042901847,0.009464201945413395,-0.02138610306298972,-0.047980704210896535,-0.052311865055911407,-0.037309616946415144,-0.016394128206243086,-0.0035404203733794097,-0.005593914628294888,-0.01736206031379163,-0.027052005511338878,-0.028931409987782913,-0.026419315460807696,-0.02444852296507563,-0.023706617257184405,-0.022189406020104857,-0.020046354455982268,-0.019457948674708406,-0.020652693947994467,-0.0218076101663691,-0.02189942761718395,-0.021737481513543745,-0.022575247828648233,-0.02409181975716163,-0.02460096776969191,-0.023345217703091715,-0.0210677970561975,-0.01944383227251808
-0.022158553478397156,-0.02397061916856509,-0.02400907731965044,-0.0237392227630541,-0.023562844546750672,-0.02322671384411257,-0.022602793614459958,-0.021165598201997267,-0.018821433078819828,-0.016515349511005986,-0.016267666925792134,-0.019955459890887095,-0.0271430664411206,-0.03502392357361889,-0.038509974294742136,-0.03165877611600189,-0.014342724310576253,0.003685490856722295,0.008375768500109652,-0.007698790425723898,-0.03816158769030575,-0.06522550163498737,-0.0665839882463279,-0.03070326078150901,0.019112377776492988,0.03535283719482961,0.001817558630039344,-0.04492828738766214,-0.06223575889908429,-0.04534397400674969,-0.019354539210345228,-0.006607595328714019,-0.009330527155044668,-0.01682626970632075,-0.021857351194267995,-0.026124955474743364,-0.030286093109864555,-0.02772919563880369,-0.016904678920830397,-0.010496803763493417,-0.018075773814834856,-0.030313604109966103,-0.033830036176450404,-0.028256291844518854,-0.020492232881580693,-0.01467478964618456
-0.021165598201997267,-0.018821433078819828,-0.016515349511005986,-0.016267666925792134,-0.019955459890887095,-0.0271430664411206,-0.03502392357361889,-0.038509974294742136,-0.03165877611600189,-0.014342724310576253,0.003685490856722295,0.008375768500109652,-0.007698790425723898,-0.03816158769030575,-0.06522550163498737,-0.0665839882463279,-0.03070326078150901,0.019112377776492988,0.03535283719482961,0.001817558630039344,-0.04492828738766214,-0.06223575889908429,-0.04534397400674969,-0.019354539210345228,-0.006607595328714019,-0.009330527155044668,-0.01682626970632075,-0.021857351194267995,-0.026124955474743364,-0.030286093109864555,-0.02772919563880369,-0.016904678920830397,-0.010496803763493417,-0.018075773814834856,-0.030313604109966103,-0.033830036176450404,-0.028256291844518854,-0.020492232881580693,-0.01467478964618456,-0.01270335217458125,-0.015799662376851736,-0.02220614553805492,-0.028184128587980285,-0.030650900430486405,-0.02824204900447523,-0.02281185664746639
-0.02348094047939172,-0.02220858963423525,-0.02040467585580385,-0.019425437957309215,-0.01981013584076627,-0.02188553964608075,-0.025014506658233123,-0.02726356385377068,-0.02674271406126478,-0.022766448594268626,-0.01650295002699623,-0.011172477516361457,-0.012131938737741219,-0.023533121425245322,-0.0400944379697387,-0.045858294588259255,-0.028866052013108313,-0.0012168091971147751,0.006984268809564664,-0.012309191174496435,-0.03347131514511379,-0.03754124764708529,-0.031789019699342023,-0.027356711871221878,-0.024309032902928174,-0.018049487855836686,-0.009924681533114394,-0.007920376162078203,-0.01652829618696474,-0.03036525864964287,-0.03843410418345883,-0.03387054256199326,-0.02179230161002405,-0.013665955133533483,-0.013724055905753598,-0.017861866758377795,-0.02175476052236587,-0.023967962238767605,-0.024833680134279626,-0.024989282294741573,-0.024376069915620517,-0.022809398070858355,-0.021318637790975058,-0.02136848159826149,-0.02229173279723229,-0.021719868260327707
-0.021719868260327707,-0.019545647666299543,-0.018867733925441728,-0.021375478061190688,-0.02454150362793582,-0.025723083800865396,-0.025423196800091176,-0.024352401937349416,-0.02228164853598401,-0.020147566959488872,-0.01834112692804672,-0.015963739876831196,-0.015254848064526955,-0.0209386809195573,-0.03317292512626412,-0.042892240303778015,-0.035022575367951746,-0.008481153822837885,0.009371192995188102,-0.004504259202823576,-0.032940114016598604,-0.045509337086585784,-0.037479574882993166,-0.022729251533752454,-0.013131565863238145,-0.012174404108784877,-0.01637482942860273,-0.02113407094795993,-0.024808314469824122,-0.02673130826910371,-0.025931473656189183,-0.023288148502934043,-0.02137329826797514,-0.021046205921220053,-0.021145850803692925,-0.021034042983422905,-0.020959812237183857,-0.021530075254720844,-0.022748390670958903,-0.02316465908840714,-0.022449188944178952,-0.02254601444062572,-0.023746117735918296,-0.023890647769402314,-0.022525418987069,-0.02083676554267377
-0.02138031583069297,-0.02207044594998165,-0.0213036203950518,-0.02059243599386181,-0.021649982361965147,-0.023739998612462846,-0.02551470926234327,-0.025856047764398118,-0.02417598043395082,-0.020808522407801983,-0.01637790555843262,-0.01264892991790843,-0.013988297364940545,-0.024709037953048612,-0.04129885392759028,-0.04702078457678864,-0.025865526918311926,0.006382108767596482,0.010283121984139686,-0.01920806088468764,-0.04447270014326111,-0.04308952272605214,-0.027815524898505646,-0.016172439181272473,-0.0132680057057384,-0.016087678559018454,-0.02012966542414578,-0.02303233771581746,-0.024370619494470294,-0.024468748288093332,-0.024292241592630305,-0.023921153831292057,-0.022033075449973384,-0.01951648295777516,-0.01951335799222743,-0.022048896220030294,-0.023776838704677502,-0.0234134630837111,-0.02260815599460346,-0.022090933533735986,-0.021537589364582457,-0.021546681558058237,-0.02245611027418306,-0.023198309974797705,-0.022796874333351116,-0.021560512323005418
-0.022796874333351116,-0.021560512323005418,-0.020427012094088034,-0.02020208117324432,-0.021291163258151058,-0.02363060389799049,-0.026310501042438955,-0.02717643056081873,-0.02463495263416831,-0.01977286408664695,-0.015103889188328933,-0.012692113529048026,-0.014901115324997298,-0.024374012224837028,-0.03899154521591108,-0.04596635302728066,-0.030059040498665764,0.000612258219027037,0.01148879722130818,-0.012099792817963795,-0.04018320104352341,-0.04410932729704056,-0.030964268691612118,-0.01914721446826633,-0.014776773222798738,-0.015338215349996243,-0.01770650938666712,-0.021287577768754944,-0.025329122015607025,-0.02666994423750453,-0.024664915505725873,-0.022366287358454924,-0.021111593523149525,-0.02054653683079522,-0.021265764546262576,-0.02274458190756057,-0.022889650269420667,-0.021623244565471454,-0.02101089190113435,-0.0217320788698859,-0.022730874254482197,-0.023357302323631337,-0.023493805930934607,-0.022984152778377384,-0.02207816700420969,-0.021109948664901675
0.05205076671801167,0.04797023202778949,0.042185920044694306,0.040210693909406514,0.04366768862517825,0.0484548481613177,0.04984736668612918,0.0478499733976332,0.045285351171894674,0.04465572152334168,0.046571555153830546,0.04861597186988677,0.04823381734256761,0.04527422065769593,0.04032447234097228,0.03657319853697767,0.04186553423871368,0.05637926262295041,0.0646219795802673,0.05594370601936929,0.03881583032137087,0.02605129368421995,0.026123071740299094,0.04451394752193525,0.06982872135487495,0.07217325893148946,0.04508040375176529,0.0240227267900643,0.03244016003986146,0.05078893195235642,0.05649596675872987,0.05065830355535555,0.043409303272564634,0.0404009601172942,0.0424154832730567,0.0473002063350925,0.05099077889227595,0.05065646541318339,0.04712434698867663,0.043347735871039114,0.042069582225298614,0.04369974424473436,0.046279332549275166,0.04771711871803812,0.047434318998428794,0.0470890256311099
0.0478499733976332,0.045285351171894674,0.04465572152334168,0.046571555153830546,0.04861597186988677,0.04823381734256761,0.04527422065769593,0.04032447234097228,0.03657319853697767,0.04186553423871368,0.05637926262295041,0.0646219795802673,0.05594370601936929,0.03881583032137087,0.02605129368421995,0.026123071740299094,0.04451394752193525,0.06982872135487495,0.07217325893148946,0.04508040375176529,0.0240227267900643,0.03244016003986146,0.05078893195235642,0.05649596675872987,0.05065830355535555,0.043409303272564634,0.0404009601172942,0.0424154832730567,0.0473002063350925,0.05099077889227595,0.05065646541318339,0.04712434698867663,0.043347735871039114,0.042069582225298614,0.04369974424473436,0.046279332549275166,0.04771711871803812,0.047434318998428794,0.0470890256311099,0.047808387556014145,0.04795764185195708,0.046874915267320516,0.0454180063450327,0.04222713285570776,0.037999224576767715,0.04039925099279457
0.05223455859045686,0.06082543980921558,0.05493902270671496,0.0418702479835555,0.035021318331262846,0.03756710196038608,0.04421811836365319,0.049469301125418384,0.05113635993514606,0.05036138915530805,0.049535342890534996,0.04874223057161753,0.046589114563757195,0.04295135359864863,0.037752147779277184,0.03262848914404039,0.03605974461026154,0.05548865740191274,0.07641410138192467,0.06992619816972545,0.03774411240674031,0.015968743753222037,0.02227522230166782,0.04267903555326506,0.0610749700165237,0.06678515805982156,0.05679957477906763,0.042262011329973814,0.03589290892920072,0.038974176636081714,0.044986826304797146,0.04801632951193245,0.04700163211711708,0.0450821194232912,0.04576570815092459,0.04889087079231391,0.05076498973516153,0.0486832917758005,0.04391915634997673,0.0406343096768567,0.042076628203112726,0.04681769856963987,0.04998108112312478,0.04878649849886204,0.04515732102378965,0.043451804866027836
0.049469301125418384,0.05113635993514606,0.05036138915530805,0.049535342890534996,0.04874223057161753,0.046589114563757195,0.04295135359864863,0.037752147779277184,0.03262848914404039,0.03605974461026154,0.05548865740191274,0.07641410138192467,0.06992619816972545,0.03774411240674031,0.015968743753222037,0.02227522230166782,0.04267903555326506,0.0610749700165237,0.06678515805982156,0.05679957477906763,0.042262011329973814,0.03589290892920072,0.038974176636081714,0.044986826304797146,0.04801632951193245,0.04700163211711708,0.0450821194232912,0.04576570815092459,0.04889087079231391,0.05076498973516153,0.0486832917758005,0.04391915634997673,0.0406343096768567,0.042076628203112726,0.04681769856963987,0.04998108112312478,0.04878649849886204,0.04515732102378965,0.043451804866027836,0.04598123062260679,0.0496429923812762,0.04938211488602501,0.04515962983735997,0.04161958767796972,0.0419924347958387,0.04520940427415147
0.05009061413750941,0.049405360307383,0.04610322803694823,0.041626658011347455,0.04022125953338983,0.043373543018045156,0.0470068064600376,0.04787737808756365,0.04753227999996813,0.04823464717702781,0.04979846906647874,0.050021196217644705,0.04723267645683238,0.04238120653131589,0.03706349933409892,0.03437130773075124,0.0429657637296091,0.06319438344487631,0.07008022163459171,0.04712800005201978,0.0240403404105172,0.030477603476412454,0.0484567688137424,0.05229675448483606,0.04848536518679139,0.05111222463583105,0.05398075760375525,0.04701480400920327,0.03785605015781586,0.038312993652184955,0.04597657459153056,0.05086341853689341,0.04902934938156508,0.04517460183423267,0.04513675220651866,0.047784276335099754,0.04821211581232754,0.04614283186429696,0.04421823911792591,0.042894562210659536,0.04261160376845828,0.0449868054967113,0.049250243187586036,0.05238973604369745,0.052033674894770475,0.047331837353847245
0.0538046708235114,0.0636883093323048,0.05688461928129292,0.04176853883592718,0.03341905041922305,0.03533068368449724,0.04217621672370614,0.048564791632426864,0.05167158182629226,0.05226754570450054,0.05291764002779215,0.05279995688561565,0.04835089469937773,0.03891961446457751,0.029040094538797225,0.027812974980665223,0.04222203163978871,0.06394115773235882,0.07348842984112133,0.06292100914214568,0.041113338787078166,0.022606519468003485,0.02123073934742758,0.039909776081284834,0.06154027165743806,0.06434967049849852,0.04993515096630897,0.04210113820302101,0.04957422130229504,0.05047894664346808,0.03498826663894267,0.0281399966486546,0.042627616157692554,0.05782805548951776,0.05867453134284971,0.05095391348846376,0.04342694478709962,0.039724191202619934,0.040688239744283816,0.04507506136111981,0.049078475473181185,0.04909635176929468,0.04604993773995709,0.044658560601147194,0.04706811762658453,0.0489169329336581
0.048564791632426864,0.05167158182629226,0.05226754570450054,0.05291764002779215,0.05279995688561565,0.04835089469937773,0.03891961446457751,0.029040094538797225,0.027812974980665223,0.04222203163978871,0.06394115773235882,0.07348842984112133,0.06292100914214568,0.041113338787078166,0.022606519468003485,0.02123073934742758,0.039909776081284834,0.06154027165743806,0.06434967049849852,0.04993515096630897,0.04210113820302101,0.04957422130229504,0.05047894664346808,0.03498826663894267,0.0281399966486546,0.042627616157692554,0.05782805548951776,0.05867453134284971,0.05095391348846376,0.04342694478709962,0.039724191202619934,0.040688239744283816,0.04507506136111981,0.049078475473181185,0.04909635176929468,0.04604993773995709,0.044658560601147194,0.04706811762658453,0.0489169329336581,0.04591438558023759,0.04194261020853479,0.043040663340280935,0.047705074539955046,0.05022088307224324,0.04816724538369887,0.04394186491424336
0.036332414950818,0.0381533175775342,0.05117553131690393,0.061228173488822056,0.05524999123736252,0.04064083511288272,0.03335151164541294,0.0375260896344327,0.046228905645005536,0.05254827383741739,0.053840279387129195,0.051159620200791456,0.0476879419083854,0.044856064089254556,0.041178269427846706,0.036661069800978566,0.036221859610235795,0.04695186780484521,0.06380347497096531,0.06358789452564395,0.04142175952495881,0.028822370437759266,0.04001399213742073,0.05009973640984787,0.04523082686694631,0.041135870458127013,0.048621415138481665,0.056311641690536596,0.05319904092150558,0.04548051894550375,0.04200687465369398,0.04200555374198511,0.04245540943452179,0.04349550011273955,0.04520743822242465,0.047048446083885385,0.049341035026162335,0.05123571609241302,0.050092483099877655,0.045655430330595735,0.04164944756216533,0.04147807591350089,0.04474152703980129,0.04777664065398127,0.0474660864541622,0.045530246837417326
0.051480989175946935,0.04914887076510437,0.04519148705253133,0.041488486387805265,0.03973479927881232,0.040996488053001115,0.04453856212722365,0.048512912596828245,0.05166333548736522,0.05281479958813219,0.051234689742421895,0.04774395593881017,0.043421219693672894,0.03876494574938465,0.03507865398946889,0.03625727241455993,0.04831362753312998,0.06649387175081659,0.0671830958816416,0.04317278621384983,0.0257606953034355,0.03393940285412559,0.04693647780311786,0.04782715761513455,0.045910813013928096,0.05135798838842543,0.05679496899041115,0.051768908189968245,0.04147900960521515,0.037843405646879505,0.042016736026794045,0.04608410203452067,0.04603491868052803,0.04621882936692575,0.05001792069421884,0.05239584894465513,0.04822976406347943,0.04155603746926719,0.03955866356762898,0.04338100940423462,0.04817834471391786,0.049231225564898666,0.04725414578785338,0.04631218261735947,0.047679918936949874,0.04886327757756346
0.05170584080124104,0.04712410029219873,0.04456088422686169,0.044771993369408646,0.04417348888484618,0.0430971423247246,0.04389171049038596,0.04485785585863783,0.045029415552495414,0.046812260859859144,0.05013913962876656,0.051933687599057976,0.05065815499930201,0.04653736028253582,0.0402224512644634,0.03446843767692011,0.03612922653105732,0.049685721135946125,0.06426765336387129,0.061930378062286504,0.04410941788979819,0.030251379560025448,0.03134664911033978,0.042124269621834694,0.05334936354394825,0.05885162511925881,0.05619680490964603,0.04820144546324706,0.04012707851793451,0.034885061739515937,0.035170412280545967,0.04530936260446348,0.05890877001396785,0.05733570197145648,0.04184351049664331,0.03643665315161856,0.045211187024961026,0.05104790329572313,0.04842525336206124,0.044368242116970116,0.04350057800878882,0.044867409066765986,0.04611791561996375,0.046902541914958795,0.04768396715818996,0.04800566869399677
0.04795528118926413,0.05013899382438208,0.05109860705147792,0.04741802911152658,0.04107173167531375,0.03730935901195158,0.03859710189005163,0.044271714588308184,0.05132670094256501,0.055250500121195444,0.05399740476289766,0.04975781165717798,0.045490780736365075,0.04106017085737568,0.03503851896976967,0.031762750839465184,0.04099494572168974,0.06059230907851087,0.0678685090990809,0.051348428091083614,0.0340975159267585,0.03640733371335442,0.04774255582173575,0.05251841513404139,0.04773145104732062,0.03838641053851892,0.03597310174955669,0.04621436020485322,0.057271322515309996,0.0569976676727211,0.04914498072960377,0.04172754916006918,0.03765343820090301,0.03885127251377983,0.04438204395684737,0.04855559687186496,0.04935122190079278,0.05016092163628873,0.05100739094944571,0.048525871124041,0.043736686356952936,0.04110938844021351,0.04202282670460296,0.04437349560716932,0.04592064026093137,0.046743425922024684
0.050065352319353745,0.050180568074439075,0.047988845881155685,0.044464431439522153,0.041659080639062526,0.04078623743336567,0.041443093580295534,0.04365497860073306,0.04849267066491012,0.05453192147986518,0.056930642528598766,0.0531866039159149,0.045516222760801126,0.03585223301756707,0.025801508982860554,0.025510896780968517,0.04765703690214198,0.07890380060333124,0.08135580117555943,0.04698142856185701,0.017493862296090238,0.022398149679049562,0.042682926666127205,0.05393357534879099,0.05571189465642749,0.0542135822163146,0.05011406696725938,0.043849226728404696,0.039636506470412614,0.04091888337099803,0.04565106336432651,0.04936070677780543,0.04935984731515993,0.04594488798902619,0.04293366489915572,0.04355657290136498,0.046156591681205277,0.04859125403059187,0.05057238809248438,0.049859094257687586,0.04542687278716097,0.041412729756671915,0.04088940025674631,0.042620373509023673,0.04566728530337338,0.0493903184050917
0.05196203691327546,0.04954513530511322,0.04372525562804093,0.03671062950726564,0.03616628798861021,0.04553162090746112,0.054287547751392745,0.05257130822966878,0.0469512098575282,0.04603291132879337,0.04698966436367609,0.04596818720690077,0.04482375910601187,0.04424050416917098,0.04143214818848527,0.03684541324247549,0.03979590644603793,0.057377889232986395,0.07206473146328964,0.058250916776547146,0.029301039766262034,0.021940037129179545,0.03842119174306019,0.05308321991421008,0.05505930249108095,0.051140361912276056,0.0480155819954061,0.046798737666192636,0.045582082015697266,0.04356236148542504,0.0428990245647535,0.044623191346121645,0.0463105497402222,0.04628078477174369,0.04596119165785661,0.046852632733383866,0.04790456108180977,0.047880590214790957,0.04739696664224959,0.046687203956817504,0.045389445250986725,0.044028286093672375,0.04326662879740763,0.04345905329849764,0.044840057109429884,0.04710602425390274
-0.18010217710054116,-0.18988414441077883,-0.19445603370046013,-0.19262344095934028,-0.18307937848594452,-0.17015846598877116,-0.16724778043234312,-0.1794510347200794,-0.19556598061459066,-0.20048689923760604,-0.1898552357035719,-0.1750606054871178,-0.16903962482161303,-0.1727151692110528,-0.18353634755581744,-0.1982116905818467,-0.20198969924593302,-0.18226751351114806,-0.15751041952283862,-0.163247015412984,-0.19715133132070126,-0.21415653264395748,-0.1932708281356256,-0.16468394717628512,-0.15976011856495753,-0.17550763313712206,-0.19244817111011348,-0.19862870665383697,-0.19317480544440374,-0.18323361409027084,-0.17792447106956188,-0.17821335675102812,-0.17859740815013675,-0.17827990848041683,-0.18047495722207701,-0.1855296619525457,-0.19055377555677508,-0.1914622365973351,-0.1864836815630725,-0.1790155777384831,-0.17519277705962372,-0.17785603946407272,-0.18359891338065268,-0.1868979437634532,-0.18625386560109858,-0.18473676205908532
-0.16724778043234312,-0.1794510347200794,-0.19556598061459066,-0.20048689923760604,-0.1898552357035719,-0.1750606054871178,-0.16903962482161303,-0.1727151692110528,-0.18353634755581744,-0.1982116905818467,-0.20198969924593302,-0.18226751351114806,-0.15751041952283862,-0.163247015412984,-0.19715133132070126,-0.21415653264395748,-0.1932708281356256,-0.16468394717628512,-0.15976011856495753,-0.17550763313712206,-0.19244817111011348,-0.19862870665383697,-0.19317480544440374,-0.18323361409027084,-0.17792447106956188,-0.17821335675102812,-0.17859740815013675,-0.17827990848041683,-0.18047495722207701,-0.1855296619525457,-0.19055377555677508,-0.1914622365973351,-0.1864836815630725,-0.1790155777384831,-0.17519277705962372,-0.17785603946407272,-0.18359891338065268,-0.1868979437634532,-0.18625386560109858,-0.18473676205908532,-0.18455232472468772,-0.18418347233901994,-0.18181878760440437,-0.17867057005279877,-0.17857629215020757,-0.18305238684093197
-0.18172135797871014,-0.17183261806384276,-0.1758106586595193,-0.18629114146531944,-0.1878589957587657,-0.17914522211602743,-0.17465029679569136,-0.18268309392750004,-0.19434619496180597,-0.19592191914692206,-0.1844028052174941,-0.17052107532671662,-0.16806856114244234,-0.17918679509412022,-0.19393809005852541,-0.20178842220929585,-0.19595941035291645,-0.17626176215476508,-0.15833589039930113,-0.16332753108613932,-0.1866834436685859,-0.20212894175739257,-0.2004577209849707,-0.19128335149446027,-0.1790298467094918,-0.16853523408596796,-0.16967163494062168,-0.1807758141920974,-0.19048200843873067,-0.19268212417993258,-0.1874895773651688,-0.17983704806347467,-0.1779020884754433,-0.1826525060344128,-0.18611318245565991,-0.18455126855143641,-0.1829135861554972,-0.1840840311207781,-0.18401872467848548,-0.1802227767282301,-0.17667166428634645,-0.17828603075101035,-0.18531281140355502,-0.19271905975571288,-0.19419500853829164,-0.1878851589054344
-0.179654107334088,-0.1828449846353278,-0.18768592647225585,-0.18636494815229818,-0.1810169843305944,-0.17943676821107654,-0.1843818556219265,-0.19063041346778178,-0.189267027688701,-0.1806320336869942,-0.174292887854351,-0.17151170547815495,-0.16886075461966796,-0.17788722518142602,-0.20781734390138268,-0.2282997505856168,-0.20104105988235688,-0.15151116396144032,-0.13787842106612413,-0.162904182628896,-0.18864102481008263,-0.2011055845299604,-0.20740500436576426,-0.20519028008274623,-0.18965004858537038,-0.1695203023846301,-0.15786891369235734,-0.16116692168802316,-0.17859204255400268,-0.19974752339347482,-0.20812341021215647,-0.19661058627492822,-0.17705508045774176,-0.16664652949981404,-0.17051509925998742,-0.1823708215347768,-0.19088802466401722,-0.18927930503481702,-0.1838665165715743,-0.1827182850926106,-0.18407564514970154,-0.18357399984606934,-0.1809847126643659,-0.1785211394752675,-0.17915121516140306,-0.18407742229238142
-0.189267027688701,-0.1806320336869942,-0.174292887854351,-0.17151170547815495,-0.16886075461966796,-0.17788722518142602,-0.20781734390138268,-0.2282997505856168,-0.20104105988235688,-0.15151116396144032,-0.13787842106612413,-0.162904182628896,-0.18864102481008263,-0.2011055845299604,-0.20740500436576426,-0.20519028008274623,-0.18965004858537038,-0.1695203023846301,-0.15786891369235734,-0.16116692168802316,-0.17859204255400268,-0.19974752339347482,-0.20812341021215647,-0.19661058627492822,-0.17705508045774176,-0.16664652949981404,-0.17051509925998742,-0.1823708215347768,-0.19088802466401722,-0.18927930503481702,-0.1838665165715743,-0.1827182850926106,-0.18407564514970154,-0.18357399984606934,-0.1809847126643659,-0.1785211394752675,-0.17915121516140306,-0.18407742229238142,-0.1899452635072472,-0.19117178538891663,-0.18508120965714353,-0.17640861791799478,-0.17452568538823826,-0.18154472441583128,-0.18917823590139315,-0.1898650639032984
-0.17398386201696728,-0.17048455686177102,-0.17079442484662327,-0.18427633729634155,-0.2031512604540584,-0.2033243442538419,-0.18335232121592915,-0.16796884876675208,-0.17192606878039107,-0.18422390293542926,-0.187990079297424,-0.18126346524803424,-0.17481389389788665,-0.1781304826263254,-0.19157739761924783,-0.2038835055726786,-0.19845715663187238,-0.17545467560946765,-0.1580515702662523,-0.16382717308557077,-0.18446656546604803,-0.1997701346782544,-0.1987435128707036,-0.18637910742289315,-0.1759679954233843,-0.17579360314004075,-0.18258892716636171,-0.1866642081018342,-0.1843207135658078,-0.18080509000790315,-0.1801599037619596,-0.18201499325837123,-0.18525314965805828,-0.18713239768904105,-0.18551748974173962,-0.18276697173983178,-0.18162631321487938,-0.18182341588514525,-0.18190621581001004,-0.18129970302899182,-0.1828620128863219,-0.18746740924865196,-0.18680379800030084,-0.17827563974987232,-0.17662607760586368,-0.18789744670114047
0.06723615081110365,0.06470779839384663,0.06555186880536201,0.06581309527640086,0.06571610073687502,0.06853034264094779,0.06833223196122126,0.062464871202041604,0.05990085498965013,0.0651274550160628,0.07348846617043889,0.07666923257358972,0.06817099776024668,0.05442271480854576,0.048202306039160134,0.05375475124114047,0.07069460304023115,0.09137564345534321,0.09728801386426983,0.07816977861117211,0.04339040201417535,0.01773935554296091,0.026923842327744724,0.07111596918378735,0.11844505742920015,0.12550996813185034,0.07911385371306523,0.02585905674324441,0.017880480476621226,0.045961988926921535,0.07117739997753669,0.0819097750128196,0.08780577381804468,0.08797802093614233,0.07340331642478681,0.05137572677530456,0.04250094118699255,0.05363866440906905,0.06901794201905134,0.073629828456561,0.07145650950497369,0.07066514065372502,0.06989297849818105,0.06639066534323007,0.06295548464648554,0.06263710176580814
0.062464871202041604,0.05990085498965013,0.0651274550160628,0.07348846617043889,0.07666923257358972,0.06817099776024668,0.05442271480854576,0.048202306039160134,0.05375475124114047,0.07069460304023115,0.09137564345534321,0.09728801386426983,0.07816977861117211,0.04339040201417535,0.01773935554296091,0.026923842327744724,0.07111596918378735,0.11844505742920015,0.12550996813185034,0.07911385371306523,0.02585905674324441,0.017880480476621226,0.045961988926921535,0.07117739997753669,0.0819097750128196,0.08780577381804468,0.08797802093614233,0.07340331642478681,0.05137572677530456,0.04250094118699255,0.05363866440906905,0.06901794201905134,0.073629828456561,0.07145650950497369,0.07066514065372502,0.06989297849818105,0.06639066534323007,0.06295548464648554,0.06263710176580814,0.06307428206229575,0.0618616325958579,0.06258379286998805,0.068457435886718,0.07309005763689762,0.06830424753661907,0.06195758144279021
0.06164638003747883,0.06102924871233191,0.06473008132457121,0.06749922611725502,0.06661976757761215,0.06527182806253926,0.06585986606035357,0.06561505260699593,0.06355225627467287,0.06500282688867544,0.07125121390983873,0.07386411099027032,0.06854588934876314,0.06138490684618268,0.05565562875301307,0.0511382292870007,0.05699248348489159,0.08002509580481153,0.09822075947233803,0.0821276997589816,0.047504803954215385,0.03727842458188195,0.05616659710739069,0.07413368614788957,0.0763709541856124,0.07155793617632616,0.06761505598116486,0.06459393864079466,0.06364467738153143,0.06565032483290359,0.06623849632708792,0.06351157307283559,0.06205190947481339,0.06433479403387914,0.06851827900674418,0.07185564169778366,0.07064826292433747,0.06500640572730146,0.06034616569519944,0.059520221400190115,0.06298286658966734,0.07024143331037151,0.07461347765593324,0.07023215130629143,0.06173623508704696,0.05777018343992058
0.05866430397130492,0.0636491986523855,0.06986688868369802,0.07295247862323803,0.07129191111369401,0.06632924290202036,0.06244911566950919,0.061888092743380106,0.06143368948977182,0.060488373715656484,0.06547967121127146,0.07625810221361098,0.0796839202009074,0.06923595218848362,0.054913164829153524,0.046995673317310124,0.05168782952510275,0.07386309193061473,0.09603371176337154,0.08638356926536059,0.05264652025576949,0.03701862611518511,0.052813307899529593,0.07554851194714468,0.0828217338507643,0.07427987007283154,0.0628269642466811,0.05777664034141093,0.05959267211644544,0.06480254480490004,0.06906266581493992,0.06919126136231832,0.06637511233563692,0.06526226597160101,0.067053184072475,0.06801301385441402,0.06665584750227985,0.06488465270339425,0.06295376808820193,0.06108247563083882,0.06280189939532722,0.06907847682448728,0.07365559170061822,0.07137251899510913,0.06471076706953816,0.05906457412341147
0.06418290083522477,0.06471759578511241,0.0669815630737159,0.06905681569941005,0.06875508481921497,0.06488082059529257,0.060204678134515396,0.0594483356987236,0.06346289822695297,0.06945904080240595,0.07409778343339046,0.0750134181697571,0.0711082194157417,0.06201649468486378,0.05119577304200267,0.047032120394502275,0.05741564612842123,0.08082469451366363,0.09645918178146402,0.08268976134448772,0.0539815272793778,0.04234949853153855,0.0516317077703216,0.0655736738932545,0.07469832413808022,0.07740570345522986,0.07390908636749546,0.06595394394641213,0.05904000458566776,0.058404614751995446,0.06270897196177966,0.0673184756084644,0.06937115153856459,0.06852606734834527,0.06691718933881144,0.06593240939290508,0.06450142791116126,0.06257249143618264,0.0630382847155633,0.06777995932893671,0.07214735148260817,0.07008057700900004,0.06331867693741955,0.058473808688356735,0.06054285018065018,0.0680925446328042
0.015281932463686709,0.012721031147942643,0.007379733264656655,0.0053870881305807874,0.009139978923659128,0.015890182265722856,0.019522062896698136,0.015162964650584204,0.006111392358776601,0.0014494524369263219,0.005444143411483889,0.014170595050393704,0.01947942586789289,0.01596902912455173,0.007368487749010767,0.002629167167463453,0.0069883103884271925,0.017715646001609634,0.02169625117496022,0.010370861157354725,-0.000606704446424228,0.004792502660041999,0.015823391967015564,0.017379458453022613,0.011527038206741832,0.006890922233920708,0.008312308730810552,0.014898208478994104,0.017446082399112297,0.008782618609814214,-0.00024144907798678752,0.005862152562806375,0.021021117018624916,0.0246249531448164,0.01058227715459636,-0.003915876536446881,-0.0009572800701056795,0.014270576021227693,0.022706883311512428,0.018012226793901825,0.009145549014536644,0.004292985558214602,0.00592849415783539,0.01271099766858826,0.018025014625563832,0.015320400586037227
0.002629167167463453,0.0069883103884271925,0.017715646001609634,0.02169625117496022,0.010370861157354725,-0.000606704446424228,0.004792502660041999,0.015823391967015564,0.017379458453022613,0.011527038206741832,0.006890922233920708,0.008312308730810552,0.014898208478994104,0.017446082399112297,0.008782618609814214,-0.00024144907798678752,0.005862152562806375,0.021021117018624916,0.0246249531448164,0.01058227715459636,-0.003915876536446881,-0.0009572800701056795,0.014270576021227693,0.022706883311512428,0.018012226793901825,0.009145549014536644,0.004292985558214602,0.00592849415783539,0.01271099766858826,0.018025014625563832,0.015320400586037227,0.007255708879003328,0.0026633633759954893,0.007006294520046353,0.017706951307063575,0.02168343105240713,0.010363724800333285,-0.0006095165087287881,0.0047908438958958605,0.015821503218274954,0.017377279912054094,0.0115247928263872,0.006888706391447316,0.00831012703755772,0.014896093046825619,0.017444102779558338
-0.000606704446424228,0.004792502660041999,0.015823391967015564,0.017379458453022613,0.011527038206741832,0.006890922233920708,0.008312308730810552,0.014898208478994104,0.017446082399112297,0.008782618609814214,-0.00024144907798678752,0.005862152562806375,0.021021117018624916,0.0246249531448164,0.01058227715459636,-0.003915876536446881,-0.0009572800701056795,0.014270576021227693,0.022706883311512428,0.018012226793901825,0.009145549014536644,0.004292985558214602,0.00592849415783539,0.01271099766858826,0.018025014625563832,0.015320400586037227,0.007255708879003328,0.0026633633759954893,0.007006294520046353,0.017706951307063575,0.02168343105240713,0.010363724800333285,-0.0006095165087287881,0.0047908438958958605,0.015821503218274954,0.017377279912054094,0.0115247928263872,0.006888706391447316,0.00831012703755772,0.014896093046825619,0.017444102779558338,0.008780676021384621,-0.00024395364294435692,0.005858243196892796,0.02101684151238696,0.024626711788259145
0.021021117018624916,0.0246249531448164,0.01058227715459636,-0.003915876536446881,-0.0009572800701056795,0.014270576021227693,0.022706883311512428,0.018012226793901825,0.009145549014536644,0.004292985558214602,0.00592849415783539,0.01271099766858826,0.018025014625563832,0.015320400586037227,0.007255708879003328,0.0026633633759954893,0.007006294520046353,0.017706951307063575,0.02168343105240713,0.010363724800333285,-0.0006095165087287881,0.0047908438958958605,0.015821503218274954,0.017377279912054094,0.0115247928263872,0.006888706391447316,0.00831012703755772,0.014896093046825619,0.017444102779558338,0.008780676021384621,-0.00024395364294435692,0.005858243196892796,0.02101684151238696,0.024626711788259145,0.010599448443689711,-0.003892620962053302,-0.0009920727406068,0.014083495050436556,0.02247216822450302,0.018426872513551955,0.011289197894748183,0.007322145870529675,0.005508220287148886,0.006243715655183479,0.010622250471425954,0.015121799601711236
0.0026633633759954893,0.007006294520046353,0.017706951307063575,0.02168343105240713,0.010363724800333285,-0.0006095165087287881,0.0047908438958958605,0.015821503218274954,0.017377279912054094,0.0115247928263872,0.006888706391447316,0.00831012703755772,0.014896093046825619,0.017444102779558338,0.008780676021384621,-0.00024395364294435692,0.005858243196892796,0.02101684151238696,0.024626711788259145,0.010599448443689711,-0.003892620962053302,-0.0009920727406068,0.014083495050436556,0.02247216822450302,0.018426872513551955,0.011289197894748183,0.007322145870529675,0.005508220287148886,0.006243715655183479,0.010622250471425954,0.015121799601711236,0.01573262752753668,0.012894959720017954,0.008817192042540778,0.005526797409406936,0.0062751593553743434,0.011985076267715743,0.017798983932373766,0.0185404342691911,0.013012839210982983,0.0029371523095220948,-0.004384197862586706,0.003180842107410641,0.023821884115112196,0.032426072508060254,0.016021055391994363
-0.0006095165087287881,0.0047908438958958605,0.015821503218274954,0.017377279912054094,0.0115247928263872,0.006888706391447316,0.00831012703755772,0.014896093046825619,0.017444102779558338,0.008780676021384621,-0.00024395364294435692,0.005858243196892796,0.02101684151238696,0.024626711788259145,0.010599448443689711,-0.003892620962053302,-0.0009920727406068,0.014083495050436556,0.02247216822450302,0.018426872513551955,0.011289197894748183,0.007322145870529675,0.005508220287148886,0.006243715655183479,0.010622250471425954,0.015121799601711236,0.01573262752753668,0.012894959720017954,0.008817192042540778,0.005526797409406936,0.0062751593553743434,0.011985076267715743,0.017798983932373766,0.0185404342691911,0.013012839210982983,0.0029371523095220948,-0.004384197862586706,0.003180842107410641,0.023821884115112196,0.032426072508060254,0.016021055391994363,-0.002448519394919608,-0.001987043267310925,0.009203217602936381,0.016270285103071817,0.016325230677996284
0.007322145870529675,0.005508220287148886,0.006243715655183479,0.010622250471425954,0.015121799601711236,0.01573262752753668,0.012894959720017954,0.008817192042540778,0.005526797409406936,0.0062751593553743434,0.011985076267715743,0.017798983932373766,0.0185404342691911,0.013012839210982983,0.0029371523095220948,-0.004384197862586706,0.003180842107410641,0.023821884115112196,0.032426072508060254,0.016021055391994363,-0.002448519394919608,-0.001987043267310925,0.009203217602936381,0.016270285103071817,0.016325230677996284,0.013278240099606464,0.00951472220215064,0.005640887631307195,0.0051658441326506346,0.011980392391487009,0.020435045930196363,0.018955430370337093,0.0087220958490611,0.0030071072293424636,0.0058718750244352285,0.010075773176537359,0.012214428812076187,0.013689200541856504,0.013459572121795878,0.010703166003194351,0.009096281039876818,0.011404520396213105,0.013956084498946027,0.012609388661304465,0.00917678903847666,0.006823045258520164
0.011404520396213105,0.013956084498946027,0.012609388661304465,0.00917678903847666,0.006823045258520164,0.006284201033857427,0.00887770360759642,0.014696494544956765,0.01872802042595271,0.01596993493522956,0.008981230531137712,0.005174430941397066,0.007089848260558586,0.010938974402648323,0.011988201430166465,0.008196277714283294,0.005898879841077245,0.015010334830545074,0.027150371321506883,0.020972232998786363,0.0012914082288480507,-0.004740201173160605,0.0064987439461336866,0.015099355282565764,0.01369944578338402,0.01031882923073237,0.009577795068541527,0.010920165640419048,0.01313920334025086,0.013452543388586433,0.0108044314159894,0.009139203194466313,0.011399955749784,0.013942696691399683,0.012602257419066972,0.009174562917882375,0.006821846045282208,0.006282482245876823,0.00887554113480203,0.014694208187213804,0.018725688835313697,0.015967561575870808,0.00897909495051635,0.005173084475539226,0.0070888696496737,0.01093432297556153
0.011399955749784,0.013942696691399683,0.012602257419066972,0.009174562917882375,0.006821846045282208,0.006282482245876823,0.00887554113480203,0.014694208187213804,0.018725688835313697,0.015967561575870808,0.00897909495051635,0.005173084475539226,0.0070888696496737,0.01093432297556153,0.011971962054586923,0.008167841717539696,0.005888819318000456,0.015074957433603813,0.02723419807515009,0.020602228973966297,-0.000510221156356328,-0.008354620341636743,0.0037378506134992315,0.018107506943361933,0.02265536977032162,0.018360007590927176,0.010750874582000391,0.005239307127688589,0.004993891892437614,0.00899734546105651,0.012422703955697566,0.012050285648868458,0.010415923165000583,0.011454530789080314,0.014242741762260189,0.014169278046101158,0.010365548491774741,0.007233508364369315,0.00723510092278172,0.00916587766008771,0.012001154040525484,0.014151973613152053,0.013760716618081932,0.011686221809667791,0.009763959979537462,0.00880356744328457
0.00887554113480203,0.014694208187213804,0.018725688835313697,0.015967561575870808,0.00897909495051635,0.005173084475539226,0.0070888696496737,0.01093432297556153,0.011971962054586923,0.008167841717539696,0.005888819318000456,0.015074957433603813,0.02723419807515009,0.020602228973966297,-0.000510221156356328,-0.008354620341636743,0.0037378506134992315,0.018107506943361933,0.02265536977032162,0.018360007590927176,0.010750874582000391,0.005239307127688589,0.004993891892437614,0.00899734546105651,0.012422703955697566,0.012050285648868458,0.010415923165000583,0.011454530789080314,0.014242741762260189,0.014169278046101158,0.010365548491774741,0.007233508364369315,0.00723510092278172,0.00916587766008771,0.012001154040525484,0.014151973613152053,0.013760716618081932,0.011686221809667791,0.009763959979537462,0.00880356744328457,0.009699209579857562,0.01173993326112076,0.011597004196084658,0.008843557023536935,0.008039829391701194,0.01192815800136308
0.010158714656449533,0.012814656654641049,0.012610496817713446,0.01136702278660361,0.011268183621957435,0.011993216157004459,0.012150376546578903,0.011209963864197692,0.008908327521470635,0.006278656195845864,0.00710757403527338,0.013454084962902665,0.020033314758604998,0.01739187187209621,0.0041628519521791285,-0.004830651328307513,0.00656875707432715,0.027661000253622656,0.02921887114548919,0.008782692920105476,-0.006285007171109108,-0.0028206065527047073,0.008442560799241109,0.017961822486276206,0.023603610360607763,0.02204681327288054,0.011724726059085758,0.0005356044654648159,-0.001006418719222659,0.006588087510582355,0.013891104619044577,0.015987006750813177,0.01567911083239834,0.01571386705519287,0.01374499919144422,0.007301660835274352,0.002381100271854808,0.006674994627960474,0.01492916710319158,0.016452395608363632,0.011013458301448786,0.005777655446011732,0.006277407990933312,0.013108950051962465,0.020019389819908272,0.017445149217249392
0.012150376546578903,0.011209963864197692,0.008908327521470635,0.006278656195845864,0.00710757403527338,0.013454084962902665,0.020033314758604998,0.01739187187209621,0.0041628519521791285,-0.004830651328307513,0.00656875707432715,0.027661000253622656,0.02921887114548919,0.008782692920105476,-0.006285007171109108,-0.0028206065527047073,0.008442560799241109,0.017961822486276206,0.023603610360607763,0.02204681327288054,0.011724726059085758,0.0005356044654648159,-0.001006418719222659,0.006588087510582355,0.013891104619044577,0.015987006750813177,0.01567911083239834,0.01571386705519287,0.01374499919144422,0.007301660835274352,0.002381100271854808,0.006674994627960474,0.01492916710319158,0.016452395608363632,0.011013458301448786,0.005777655446011732,0.006277407990933312,0.013108950051962465,0.020019389819908272,0.017445149217249392,0.004184238076070306,-0.0048354471602346984,0.00655963676357792,0.027655827696125745,0.02921662295101971,0.008781048730830568
0.01567911083239834,0.01571386705519287,0.01374499919144422,0.007301660835274352,0.002381100271854808,0.006674994627960474,0.01492916710319158,0.016452395608363632,0.011013458301448786,0.005777655446011732,0.006277407990933312,0.013108950051962465,0.020019389819908272,0.017445149217249392,0.004184238076070306,-0.0048354471602346984,0.00655963676357792,0.027655827696125745,0.02921662295101971,0.008781048730830568,-0.006286952971011355,-0.002822803577893525,0.00844032223543826,0.017959625190460397,0.02360142586363595,0.022044565613646892,0.011722390481979475,0.0005334126808149392,-0.0010078671391197595,0.0065876210910396395,0.013889347638075557,0.015977934939968106,0.01566056802404077,0.015710556597313546,0.013823514866734068,0.007495510927337075,0.0024570900806761753,0.005983637507991248,0.013209207277215206,0.01535867804853392,0.013235510550929273,0.011008319975575725,0.00972982319034351,0.009878544327231915,0.010987536962474538,0.011506784908996549
0.01492916710319158,0.016452395608363632,0.011013458301448786,0.005777655446011732,0.006277407990933312,0.013108950051962465,0.020019389819908272,0.017445149217249392,0.004184238076070306,-0.0048354471602346984,0.00655963676357792,0.027655827696125745,0.02921662295101971,0.008781048730830568,-0.006286952971011355,-0.002822803577893525,0.00844032223543826,0.017959625190460397,0.02360142586363595,0.022044565613646892,0.011722390481979475,0.0005334126808149392,-0.0010078671391197595,0.0065876210910396395,0.013889347638075557,0.015977934939968106,0.01566056802404077,0.015710556597313546,0.013823514866734068,0.007495510927337075,0.0024570900806761753,0.005983637507991248,0.013209207277215206,0.01535867804853392,0.013235510550929273,0.011008319975575725,0.00972982319034351,0.009878544327231915,0.010987536962474538,0.011506784908996549,0.011470839156539021,0.011394942511525454,0.010403368945106291,0.008337577816454233,0.0075375861757247965,0.011013011147449323
0.01535867804853392,0.013235510550929273,0.011008319975575725,0.00972982319034351,0.009878544327231915,0.010987536962474538,0.011506784908996549,0.011470839156539021,0.011394942511525454,0.010403368945106291,0.008337577816454233,0.0075375861757247965,0.011013011147449323,0.016822477156728414,0.016764845489146044,0.0077018785330932584,0.0011424761043208193,0.010032096075001723,0.02346942965306839,0.018454891702163793,0.0011902176327043797,-0.0029221113424155497,0.008255214322271274,0.01889382232368169,0.021361046451718803,0.016940154089482257,0.008810040774653074,0.002087174033295624,0.0025134405124676434,0.009843031910953766,0.016042026245366558,0.015425555935772519,0.01182487875220235,0.010470292282605766,0.010550612868774366,0.01013057021039974,0.010172651801955429,0.011043907574497575,0.011472008076822178,0.011442293032348026,0.011387803134208986,0.01040458728989976,0.008338074134788808,0.0075359534184887625,0.011010527153196325,0.016820038796177588
0.01182487875220235,0.010470292282605766,0.010550612868774366,0.01013057021039974,0.010172651801955429,0.011043907574497575,0.011472008076822178,0.011442293032348026,0.011387803134208986,0.01040458728989976,0.008338074134788808,0.0075359534184887625,0.011010527153196325,0.016820038796177588,0.016762602359468585,0.007699709273841457,0.001140292904797266,0.01002990143446071,0.023467284313742804,0.018452826026573728,0.001188031331969375,-0.002925004112842909,0.008251203435388361,0.018890376487508603,0.021363361855366653,0.01695051820265396,0.008805935047748528,0.0020012445423804232,0.002288116444370542,0.009633125985300698,0.016368994728625862,0.01647341223393624,0.01254778540825232,0.009914856111302751,0.009527897934686435,0.009587769378266272,0.009533619370305196,0.010480215709687173,0.012574434318918451,0.013047691090355758,0.01043049439757079,0.008332270932390059,0.010021756036118528,0.012959349893340485,0.01249159238582388,0.009128764777278905
0.012574434318918451,0.013047691090355758,0.01043049439757079,0.008332270932390059,0.010021756036118528,0.012959349893340485,0.01249159238582388,0.009128764777278905,0.008045491965049927,0.011269881366341711,0.014812077259639105,0.014229493914024307,0.01089892206991075,0.008671880560038425,0.006538393888936852,0.003624072759816157,0.006776743662183421,0.020208946614859575,0.029262278821216778,0.01663594646552504,-0.004341783312854324,-0.006806425832737574,0.008270438789791074,0.02083419213690832,0.021604362902014382,0.014498521202020675,0.00711591028967466,0.005148515671903466,0.007985528265480855,0.010364975321197914,0.010797450397921767,0.012920271989052504,0.016602982973097077,0.015604903632323626,0.008484022493425121,0.003157600126064443,0.005394747606976282,0.011610334479201878,0.015254526658562615,0.014035960946436983,0.01092670706178004,0.010224678110211067,0.012732998160807777,0.014518876327962895,0.011471288297670214,0.005474759899846886
0.010924661684889472,0.01022245005336294,0.012730528218264267,0.014516270334502278,0.011469272853340432,0.00547446890765405,0.0032768711398217763,0.007538403739292633,0.013205976270032976,0.016236637337846853,0.017553284696812645,0.01686662454595327,0.013052537389308333,0.006870188912746395,3.128669066203521e-05,-0.002436439683478984,0.006130041869168375,0.023304489438730137,0.03196987486731235,0.019387185038973888,4.984283781208666e-05,-0.004140179929337809,0.004714201620589501,0.012100341613837658,0.014401030161241404,0.015403976447048384,0.015555845159906512,0.013513195103629447,0.010158776468074785,0.00752794891709009,0.006760553544771954,0.007786954588567865,0.01071125027105893,0.014471329944797618,0.015668607028533184,0.013233868486647439,0.00992126825042236,0.00802887108551473,0.007741544862759351,0.008478172308170643,0.01015150693495878,0.012708498121201398,0.014754463384421207,0.014359625325571177,0.011514655303353754,0.008472907094793175
0.01071125027105893,0.014471329944797618,0.015668607028533184,0.013233868486647439,0.00992126825042236,0.00802887108551473,0.007741544862759351,0.008478172308170643,0.01015150693495878,0.012708498121201398,0.014754463384421207,0.014359625325571177,0.011514655303353754,0.008472907094793175,0.0062724987350233075,0.004262279733876308,0.006654294646133702,0.018347636026186546,0.02785896659362673,0.01881594079852897,0.0011115283683032513,-0.0033376461153340952,0.004941324522678502,0.012068630412701207,0.014350780601359903,0.015391395779493522,0.01556126428552514,0.013517669861112391,0.010158469274921245,0.007525389192996464,0.006757851210491132,0.007784609880974501,0.010709089830399634,0.01446922697843404,0.01566658888017066,0.013231855540176413,0.00991875956194754,0.008025272485955682,0.007738181238849151,0.008481234997841734,0.010169328287078243,0.012732325531799742,0.014730996638604794,0.01422683539874636,0.011423311180434067,0.009132573189071987
0.010169328287078243,0.012732325531799742,0.014730996638604794,0.01422683539874636,0.011423311180434067,0.009132573189071987,0.008726064024757434,0.00790032830877936,0.00629796717484238,0.008221146129343836,0.014705704980881036,0.020060341533920535,0.01926939048759102,0.012268754872336493,0.0028896292404119494,-0.0029579512595701175,2.7538132391759576e-05,0.014228516030536077,0.030236863892263287,0.027977065929061906,0.0076525490200599865,-0.005464734979747143,-0.0009793409765409232,0.009016559844716776,0.015663241812966404,0.01833156559860187,0.017295336245755154,0.013181610120278082,0.008410620227893543,0.0057897723087983735,0.006242422549214826,0.00884237960613819,0.01202858551328764,0.014273556123870403,0.014374233687994084,0.012421808758680172,0.010006418448217603,0.008797002320887162,0.009382449544767033,0.010428420514825636,0.010397074046420863,0.010464588432270083,0.01202087943059455,0.013405216135391088,0.012647846613071249,0.01039551864623405
0.01202087943059455,0.013405216135391088,0.012647846613071249,0.01039551864623405,0.00879612090336298,0.009091234314963312,0.010023613007999707,0.009864416614019728,0.009624335718429527,0.011395883619249921,0.01481369626382452,0.01654221987312966,0.01350858590142473,0.007609782243801554,0.003689710321973661,0.003253433094559806,0.00732660391718894,0.017302332540966657,0.024287570242773785,0.017368566729682976,0.004830760949888864,0.001811610587234181,0.007663810442561758,0.013273067095517337,0.013952199534610087,0.01062567102218085,0.008359248428347716,0.01072597657323546,0.014163121961310662,0.013250091792895666,0.009278079433579459,0.007864986373758629,0.010548990044826784,0.013388830000225794,0.013117288327977726,0.010685043552352906,0.008859220232947022,0.009070157420686169,0.010003975007552485,0.009860166008777387,0.009625692337943748,0.01139610611049334,0.014812009671865928,0.016539801046829276,0.01350619150705832,0.007607535135735579
0.010548990044826784,0.013388830000225794,0.013117288327977726,0.010685043552352906,0.008859220232947022,0.009070157420686169,0.010003975007552485,0.009860166008777387,0.009625692337943748,0.01139610611049334,0.014812009671865928,0.016539801046829276,0.01350619150705832,0.007607535135735579,0.0036875199427132818,0.0032512491291412857,0.0073244430801930275,0.017300194539258094,0.02428532439458715,0.017365983050166567,0.004828040703167666,0.0018104382663765772,0.00766727198699013,0.013280736213886778,0.013950342712943082,0.010590647580498524,0.008315567007931752,0.010867523932133022,0.014866350054685803,0.014579175678365081,0.009960326882390597,0.0057040584652421605,0.006019328686809981,0.011220132018794763,0.016521748042585854,0.01603173760117848,0.009889532286198904,0.005030257798420024,0.006637805864299146,0.012081171311592928,0.015572505757717724,0.014900696853717036,0.011906048701606518,0.008944052740895995,0.007030339742614961,0.007038052357657434
0.012081171311592928,0.015572505757717724,0.014900696853717036,0.011906048701606518,0.008944052740895995,0.007030339742614961,0.007038052357657434,0.009582656765651124,0.012889276666413176,0.014071448652544897,0.013284851604534683,0.01301578840149304,0.012833890603657184,0.00990471016468987,0.004472605813838517,0.0008552127347588312,0.006139448339810928,0.021881385770962887,0.03112212644280766,0.017040816230352696,-0.004398622092444135,-0.006212471492437846,0.008126993005406152,0.01794450449286485,0.01735097992135294,0.014065856606828166,0.013855931361291993,0.014007435277305679,0.008299638688753703,-0.00014832457494260505,0.0011171170259524858,0.013240001077223774,0.02170478846680242,0.01927929537822676,0.013115970518036453,0.009091887301048995,0.006117890395711449,0.003800761247678577,0.0055436341420358765,0.012102789796228794,0.01764268630871316,0.016415979881429624,0.010683483249068274,0.007798678064875205,0.010152260203077267,0.012992531115573164
0.004472605813838517,0.0008552127347588312,0.006139448339810928,0.021881385770962887,0.03112212644280766,0.017040816230352696,-0.004398622092444135,-0.006212471492437846,0.008126993005406152,0.01794450449286485,0.01735097992135294,0.014065856606828166,0.013855931361291993,0.014007435277305679,0.008299638688753703,-0.00014832457494260505,0.0011171170259524858,0.013240001077223774,0.02170478846680242,0.01927929537822676,0.013115970518036453,0.009091887301048995,0.006117890395711449,0.003800761247678577,0.0055436341420358765,0.012102789796228794,0.01764268630871316,0.016415979881429624,0.010683483249068274,0.007798678064875205,0.010152260203077267,0.012992531115573164,0.011493889560965299,0.006794583512938841,0.004992389382588676,0.009392694058417616,0.015975658551763642,0.01824529731474621,0.01411105916647363,0.007966601041334079,0.005693530509073034,0.007698103047123464,0.010646567022592755,0.013359727495768576,0.015994977353784683,0.015851984479146042
0.011493889560965299,0.006794583512938841,0.004992389382588676,0.009392694058417616,0.015975658551763642,0.01824529731474621,0.01411105916647363,0.007966601041334079,0.005693530509073034,0.007698103047123464,0.010646567022592755,0.013359727495768576,0.015994977353784683,0.015851984479146042,0.008996519163738174,-9.274329892162568e-05,0.0010453535197737802,0.013214304579266627,0.021714916915643277,0.01929129103914281,0.013119223185843515,0.009089833735080148,0.006114854548839404,0.003798232634111471,0.005541480345879835,0.012100677775307416,0.017640526579597714,0.016413835731668835,0.010681367987111416,0.007796376471861612,0.010149410509938204,0.012989492994572856,0.01149334760547152,0.006801135925056597,0.005004344755480224,0.009386722387686413,0.015913949979466505,0.018169211112016425,0.014324961139478086,0.009024275658960341,0.007557129038797713,0.008104589697653024,0.0058941825806746295,0.00481438424496743,0.013741228454691643,0.027542730392154657
-0.002782844161064932,-0.013383001031536064,-0.017191775139953805,-0.013037556930009969,-0.005083692636745645,0.0010068184198873892,0.003472480564472475,0.005449151475477455,0.007522225338242772,0.00266787408688891,-0.01228480734264131,-0.025066798462471458,-0.02136095969496016,-0.0050164364779365,0.00561513687504025,0.002393131269612786,0.00020368518128627625,0.010631519066627732,0.016154314336249944,-0.0024621942168699187,-0.03059762188142595,-0.03808539734930929,-0.018285944182382833,0.009311499656355835,0.023870660634359907,0.01838433681927409,0.00044327646160086283,-0.014918612283112614,-0.018540019561978493,-0.013327569337342087,-0.0068528740773265906,-0.0030521000829247386,-0.0013588583357873377,5.913059494416827e-05,0.0009379920036173518,-0.00048721699947649414,-0.0038586553965419164,-0.006694074757990005,-0.007245539419776958,-0.006001801870914059,-0.004864119595752463,-0.004423119065065373,-0.0036608239006402543,-0.002770439415838235,-0.0031988642966356553,-0.004569241898871744
0.003472480564472475,0.005449151475477455,0.007522225338242772,0.00266787408688891,-0.01228480734264131,-0.025066798462471458,-0.02136095969496016,-0.0050164364779365,0.00561513687504025,0.002393131269612786,0.00020368518128627625,0.010631519066627732,0.016154314336249944,-0.0024621942168699187,-0.03059762188142595,-0.03808539734930929,-0.018285944182382833,0.009311499656355835,0.023870660634359907,0.01838433681927409,0.00044327646160086283,-0.014918612283112614,-0.018540019561978493,-0.013327569337342087,-0.0068528740773265906,-0.0030521000829247386,-0.0013588583357873377,5.913059494416827e-05,0.0009379920036173518,-0.00048721699947649414,-0.0038586553965419164,-0.006694074757990005,-0.007245539419776958,-0.006001801870914059,-0.004864119595752463,-0.004423119065065373,-0.0036608239006402543,-0.002770439415838235,-0.0031988642966356553,-0.004569241898871744,-0.004465684795870673,-0.0024386621728256356,-0.0014762614675875845,-0.0035615729125557686,-0.0065018816620651095,-0.006989269397572894
-0.004542651653746054,-0.002887296042731292,-0.0001287862242803099,-0.00032365303450799165,-0.005351521070838578,-0.011119642929657699,-0.01201654447112756,-0.0069174551960432705,0.0002463371489781867,0.004745996243043366,0.004816218015109996,0.0013262192428189976,-0.004452871390339275,-0.011845690155803728,-0.01888193983536641,-0.019563960265351045,-0.007545893125181634,0.012718625434653592,0.02331820503486185,0.011359298425581,-0.01301089413925571,-0.027532010343200443,-0.023098945225217847,-0.008861066664255728,0.003163986525431454,0.00846136246575889,0.007384857894270153,0.0016291062660897943,-0.005503616406478352,-0.010372432340684568,-0.011316742576355688,-0.008698541296657092,-0.004425033123697869,-0.0015656033793851817,-0.0017165167638406112,-0.002822984938941479,-0.002534557717783017,-0.0018911749306246678,-0.002808929384646581,-0.00493953845740308,-0.006536506152239071,-0.006494739055302049,-0.005342892425256346,-0.0043500477772733925,-0.0037545396092592753,-0.002772823741770453
0.004556455722619609,0.004488288830973957,0.004048172249522706,0.0034821113437638876,0.003092085889876215,0.0029282462238923446,0.0029262087365819907,0.0033612373608659656,0.004702836937233517,0.006457333656486028,0.006958891253853404,0.005129705129475264,0.0018384986488821906,-0.0007252884640019997,-0.0008657511737616307,0.001648597930456787,0.006304079019785917,0.01122193009552789,0.012010022033464008,0.005866482704848196,-0.002839950050145688,-0.005857250131134167,-0.0009648832595185496,0.005819082597861696,0.009003501490898225,0.00874345261346278,0.0067479314941262854,0.003945971560098622,0.0018327797268564306,0.0012694501762705276,0.001464076109557772,0.001984744840015935,0.0035425186452920625,0.006011816499169539,0.007404728786263601,0.006183674662173143,0.0035239385729186066,0.0015765331240710535,0.0012125877110416836,0.0024676871364204705,0.004632355738844275,0.005986811125734332,0.005461696940290828,0.0037923190988855804,0.002491433534876014,0.00257331975451708
0.0029262087365819907,0.0033612373608659656,0.004702836937233517,0.006457333656486028,0.006958891253853404,0.005129705129475264,0.0018384986488821906,-0.0007252884640019997,-0.0008657511737616307,0.001648597930456787,0.006304079019785917,0.01122193009552789,0.012010022033464008,0.005866482704848196,-0.002839950050145688,-0.005857250131134167,-0.0009648832595185496,0.005819082597861696,0.009003501490898225,0.00874345261346278,0.0067479314941262854,0.003945971560098622,0.0018327797268564306,0.0012694501762705276,0.001464076109557772,0.001984744840015935,0.0035425186452920625,0.006011816499169539,0.007404728786263601,0.006183674662173143,0.0035239385729186066,0.0015765331240710535,0.0012125877110416836,0.0024676871364204705,0.004632355738844275,0.005986811125734332,0.005461696940290828,0.0037923190988855804,0.002491433534876014,0.00257331975451708,0.0038694312606089385,0.005039592812624087,0.004897041166124634,0.003818508211841008,0.003087276184525239,0.0032527375658658675
0.030975523968578604,0.03177725715160136,0.032461762400131225,0.03248649045251174,0.032178816499768684,0.031839066133395696,0.03134357260508731,0.030902602424356756,0.031308390721557985,0.03280844312210286,0.034242612985773725,0.03417790906909773,0.032317303726223864,0.029433228645847742,0.027217620495371735,0.028004422682166887,0.032624748220859,0.03791862762954591,0.038697356435333494,0.03382437174888234,0.027932446166757576,0.025827696740209294,0.027911273198953482,0.03162260219548407,0.03454124072860543,0.035527129225487605,0.03461445651084206,0.03264795661961327,0.03084559015410621,0.030063689135168527,0.030193905503093924,0.03072538192559354,0.03154197612868062,0.03255036521621338,0.03325233654501952,0.03321142618106767,0.03253743132490679,0.03168189106377567,0.030952071313999286,0.030614131255076137,0.031198800469977715,0.03279404057367927,0.03424883938677198,0.0341795542251135,0.03231491738196677,0.029430937446721983
0.03154197612868062,0.03255036521621338,0.03325233654501952,0.03321142618106767,0.03253743132490679,0.03168189106377567,0.030952071313999286,0.030614131255076137,0.031198800469977715,0.03279404057367927,0.03424883938677198,0.0341795542251135,0.03231491738196677,0.029430937446721983,0.027216633494933754,0.028004191437756013,0.03262466471146788,0.03791848364445964,0.038697165708746414,0.03382417736561059,0.02793226341179755,0.025827524217302014,0.027911105302053422,0.031622426165466795,0.034541037576637165,0.03552691642512555,0.034614380439598816,0.0326483004748533,0.030846382601248057,0.030063886350042965,0.030191653859059416,0.030722985051875134,0.03155678167681249,0.0326179482933361,0.03338846186635717,0.033329431088518435,0.0324871363413049,0.031543221660428195,0.031153966283606692,0.031308836320902825,0.031491965072407674,0.031481393835024046,0.031656482875658934,0.03223300010418759,0.032780059313794976,0.032745852269445964
0.0021404522600619244,-0.0013112860031627245,-0.005986448744311004,-0.009856598834804647,-0.010613968324617423,-0.007097478745996443,0.0002527353331022997,0.008997273359959045,0.015144952238958719,0.015401685646732602,0.008718140969394305,-0.0037283648632088114,-0.01807482109946748,-0.028089760656875185,-0.02800640746295711,-0.015453921623174213,0.006553825879573191,0.027643551904714958,0.03343770888460264,0.018646479070230666,-0.0035832037472447002,-0.014745667423808048,-0.012073028780124737,-0.005952248112229288,-0.0031769856508325326,-0.00309933241340394,-0.0031738772612902684,-0.0021848625762694047,-0.0003312681553813445,0.0017407287742773302,0.0033286152346285874,0.0036477537311431544,0.002141933674416308,-0.001311810770124165,-0.005987219751393644,-0.009857008180182722,-0.010614137006250187,-0.007097481785074279,0.0002531053225559264,0.00899804251941963,0.015144916090176298,0.015398286135710187,0.008712114228644319,-0.0037217821506816615,-0.01802216658570486,-0.027981768504227244
0.002141933674416308,-0.001311810770124165,-0.005987219751393644,-0.009857008180182722,-0.010614137006250187,-0.007097481785074279,0.0002531053225559264,0.00899804251941963,0.015144916090176298,0.015398286135710187,0.008712114228644319,-0.0037217821506816615,-0.01802216658570486,-0.027981768504227244,-0.027962728730536582,-0.015735886493554986,0.006053294654905145,0.02868073735513653,0.04003993864393132,0.032925047824291155,0.010828443684841666,-0.015209313315934274,-0.03553495313339073,-0.045576323507839384,-0.038149513107527434,-0.005057461863740252,0.039822794127243474,0.05790136209744265,0.02594099605616061,-0.0312133697654082,-0.06132402090589207,-0.03913439623727885,0.008876822434732444,0.040952254885432075,0.04472168107113149,0.030406490234084,0.0067804787279956355,-0.018583234890838553,-0.03624590852100666,-0.03921794284946116,-0.026605050421631766,-0.005586315482082969,0.013742539558274765,0.025724891894442457,0.027643723981550614,0.017937507805848657
0.015398286135710187,0.008712114228644319,-0.0037217821506816615,-0.01802216658570486,-0.027981768504227244,-0.027962728730536582,-0.015735886493554986,0.006053294654905145,0.02868073735513653,0.04003993864393132,0.032925047824291155,0.010828443684841666,-0.015209313315934274,-0.03553495313339073,-0.045576323507839384,-0.038149513107527434,-0.005057461863740252,0.039822794127243474,0.05790136209744265,0.02594099605616061,-0.0312133697654082,-0.06132402090589207,-0.03913439623727885,0.008876822434732444,0.040952254885432075,0.04472168107113149,0.030406490234084,0.0067804787279956355,-0.018583234890838553,-0.03624590852100666,-0.03921794284946116,-0.026605050421631766,-0.005586315482082969,0.013742539558274765,0.025724891894442457,0.027643723981550614,0.017937507805848657,0.0006155896164733721,-0.015154491880830047,-0.021796947407331325,-0.017643578689211493,-0.007132290262957582,0.002619957271457498,0.0073170421856939005,0.007227620961353546,0.004717287874842601
0.006053294654905145,0.02868073735513653,0.04003993864393132,0.032925047824291155,0.010828443684841666,-0.015209313315934274,-0.03553495313339073,-0.045576323507839384,-0.038149513107527434,-0.005057461863740252,0.039822794127243474,0.05790136209744265,0.02594099605616061,-0.0312133697654082,-0.06132402090589207,-0.03913439623727885,0.008876822434732444,0.040952254885432075,0.04472168107113149,0.030406490234084,0.0067804787279956355,-0.018583234890838553,-0.03624590852100666,-0.03921794284946116,-0.026605050421631766,-0.005586315482082969,0.013742539558274765,0.025724891894442457,0.027643723981550614,0.017937507805848657,0.0006155896164733721,-0.015154491880830047,-0.021796947407331325,-0.017643578689211493,-0.007132290262957582,0.002619957271457498,0.0073170421856939005,0.007227620961353546,0.004717287874842601,0.0018930618303564586,-0.0005297915164979147,-0.0027225836442439384,-0.004268865222379509,-0.004508787280113934,-0.0037981770255263517,-0.0027941555147397677
0.012163370737040097,0.012379050750920332,0.009215204352709165,0.003812545691268246,-0.0011043765378533233,-0.002886108963482874,-0.000401201987607281,0.005241925221115959,0.012080925138079578,0.01894093327958888,0.02458132346864778,0.02591674701725323,0.01803896249311297,-0.002286243368286412,-0.02988519679035681,-0.04391956371451903,-0.01404512009104179,0.05584489760920734,0.09412624326020161,0.042263540279643796,-0.044950058657358835,-0.07307463415651391,-0.033984802439045225,0.016998310809825348,0.042796634976242955,0.0419340455579203,0.02772334239993212,0.011851349441489,-7.91081737579434e-05,-0.006298400934704877,-0.006638507732510991,-0.002423423306019111,0.003975838116182507,0.010429836966234701,0.014818395213532988,0.015219119901676537,0.012061477651010183,0.00805966514238123,0.005179047951018265,0.003578043143630915,0.0032092788400498637,0.004107498510419786,0.005720215257531866,0.007503113097989288,0.009098291929808341,0.00985357870744039
0.021512167422870064,0.01993365446872449,0.011705354541661462,2.7146623758581706e-05,-0.010601596884173862,-0.01657450516448143,-0.014394223637041088,-0.0021188005052501756,0.01723915609728756,0.0367734824250165,0.049467832532635155,0.04898627294210829,0.02890841720396045,-0.013210963124739024,-0.06361795459142196,-0.08565211916382769,-0.04081943609796065,0.0628639434677396,0.14211991753815334,0.10722042074279833,-0.018133456906049422,-0.1157452440527137,-0.11280587617243534,-0.033553727372412454,0.05286554529784675,0.09250398194741323,0.07914707952764716,0.039911635504852244,0.0011308017000516285,-0.02460586772756527,-0.03453281191363245,-0.029563911549922994,-0.012184063681235473,0.01094418822328224,0.02972805382658101,0.036601427252443544,0.03002205236352086,0.014473968559648052,-0.0010195726812316473,-0.008698655647826917,-0.008420535195906562,-0.003908692895471624,0.0036172729568316134,0.012382214098758861,0.01784465363332173,0.016738094477391444
-0.0021188005052501756,0.01723915609728756,0.0367734824250165,0.049467832532635155,0.04898627294210829,0.02890841720396045,-0.013210963124739024,-0.06361795459142196,-0.08565211916382769,-0.04081943609796065,0.0628639434677396,0.14211991753815334,0.10722042074279833,-0.018133456906049422,-0.1157452440527137,-0.11280587617243534,-0.033553727372412454,0.05286554529784675,0.09250398194741323,0.07914707952764716,0.039911635504852244,0.0011308017000516285,-0.02460586772756527,-0.03453281191363245,-0.029563911549922994,-0.012184063681235473,0.01094418822328224,0.02972805382658101,0.036601427252443544,0.03002205236352086,0.014473968559648052,-0.0010195726812316473,-0.008698655647826917,-0.008420535195906562,-0.003908692895471624,0.0036172729568316134,0.012382214098758861,0.01784465363332173,0.016738094477391444,0.010182648451171,0.0043003673303200745,0.004110781682629803,0.005827357415808945,0.004357401973939072,0.003065264701360665,0.005757367857437137
0.049159484875357644,0.03514827389405376,0.03355785030101265,0.043268422825383776,0.05334307048025866,0.05579094891395119,0.049778362775893675,0.04095539832018562,0.039941572658329025,0.050622079865339724,0.061878339842965605,0.060847214994246876,0.049068132170707275,0.039471154683736076,0.03782497508305666,0.03729318623030488,0.042284123181600276,0.06457832364652868,0.08118384831196757,0.060700890614993265,0.02680341824561408,0.022236470083331454,0.043821323938536376,0.06087146717381697,0.060257585032031755,0.05282036966107381,0.04933452652567615,0.04736320885203843,0.04552800855814064,0.04792663277608858,0.051379060965368345,0.04923519313771536,0.045249332001181565,0.04729912287086714,0.052219567808196914,0.05181056653163133,0.04793584691511407,0.048035002483612435,0.05176228621624673,0.052585091274561416,0.04855545557184024,0.04395133406488044,0.04376270820994588,0.04908870881196092,0.05460795458659338,0.05462327725624713
0.04395133406488044,0.04376270820994588,0.04908870881196092,0.05460795458659338,0.05462327725624713,0.0508443820216751,0.047749616531672645,0.04518848305212614,0.04243341679818744,0.04387749063636332,0.05243623034062196,0.06141122748747171,0.06109185689547256,0.05068586369533732,0.036535595003024154,0.02641703212105462,0.03287692024341364,0.0617716787279474,0.08712753374626606,0.07318580893722766,0.03376895816558017,0.01783954055400446,0.03515930067208163,0.05465364665188736,0.05835587513952149,0.052935160858800547,0.04937416917396507,0.05171017685861708,0.056501618237534156,0.05656546981782011,0.047804330706016265,0.03584263749941108,0.032059177243329004,0.04203237948000521,0.059261599693745726,0.0686262737684721,0.061007480872443454,0.04533285189552212,0.03738884617684231,0.040588088079168624,0.04760166994975562,0.05232468259863128,0.05261666349019673,0.049772293131922274,0.04789968376048845,0.05006998210960637
0.05006998210960637,0.05396019480459632,0.05273457486581805,0.045808482408656766,0.04276000170903659,0.0474312421814371,0.05141112040561536,0.04952325896039686,0.04632807496541967,0.047227011241297114,0.052686059534186244,0.05774313592987736,0.056175690011394754,0.047921978690779306,0.03833565237163042,0.03311984787709621,0.04019463563746275,0.060788943082267136,0.07402054935714387,0.06128085934329719,0.038912606002660804,0.03251884225846443,0.04140017688858624,0.050010715883592696,0.051757830522854514,0.05143083931385728,0.053865567605614235,0.05755945035923089,0.05706302981431284,0.04828348366381603,0.03549025567346786,0.030358933275876264,0.03972485024386922,0.05789488069941951,0.07091738330535616,0.06748896142956114,0.050286046559691266,0.03519062202914876,0.03398179034638339,0.04272215701432154,0.05074099124908883,0.053067806920173405,0.05240121974818503,0.05358309950261446,0.055635902270181274,0.053418308304616746
0.04019463563746275,0.060788943082267136,0.07402054935714387,0.06128085934329719,0.038912606002660804,0.03251884225846443,0.04140017688858624,0.050010715883592696,0.051757830522854514,0.05143083931385728,0.053865567605614235,0.05755945035923089,0.05706302981431284,0.04828348366381603,0.03549025567346786,0.030358933275876264,0.03972485024386922,0.05789488069941951,0.07091738330535616,0.06748896142956114,0.050286046559691266,0.03519062202914876,0.03398179034638339,0.04272215701432154,0.05074099124908883,0.053067806920173405,0.05240121974818503,0.05358309950261446,0.055635902270181274,0.053418308304616746,0.04751587626556954,0.04216497307229149,0.039707719349207346,0.04381981849347939,0.0538747727322305,0.058749361483058246,0.05170925584919865,0.04294259397895345,0.04507467627686824,0.055455182938691144,0.06177930234121487,0.05602940191029751,0.03899163825819997,0.022657126823296063,0.02823721537511106,0.06183565648309845
0.055635902270181274,0.053418308304616746,0.04751587626556954,0.04216497307229149,0.039707719349207346,0.04381981849347939,0.0538747727322305,0.058749361483058246,0.05170925584919865,0.04294259397895345,0.04507467627686824,0.055455182938691144,0.06177930234121487,0.05602940191029751,0.03899163825819997,0.022657126823296063,0.02823721537511106,0.06183565648309845,0.08870499846166369,0.071482003098955,0.034057537813598604,0.024633283148690736,0.040038521713298206,0.04972953711009807,0.04874280173831048,0.04988322310601966,0.057477875885877494,0.06186830958781083,0.05514713082957726,0.04431925173037486,0.03933643790743482,0.04093116068859964,0.04568460925181849,0.05063457357469301,0.05454189765725649,0.05736562946944093,0.05551297269944212,0.04687597333006798,0.040149349478129606,0.04371083123127576,0.051258036061436175,0.052454233579008344,0.04853108692572608,0.04761911747462422,0.05113458314901723,0.05293664786050853
0.050548058379991094,0.04817645917367715,0.04780797437508157,0.046544079682805196,0.04490984347190452,0.04811685292754879,0.054527513367330256,0.05518270639323937,0.04840186104784104,0.042937520937262996,0.046017402844576547,0.053688136028048006,0.056674292732990426,0.05245804750067777,0.04285803637630408,0.033247884322444625,0.03835466065805114,0.0605924757841742,0.07286686019694084,0.058283431306932344,0.03869738730036126,0.035759747354052906,0.04305365819051296,0.04848155951112096,0.051548251847577324,0.05537177594707386,0.05751625603219753,0.05413363888142123,0.04699015473301045,0.040564711202899284,0.03837958635137563,0.04323718517131257,0.05311158226110544,0.06032226656031514,0.060039955608486975,0.05328501263689463,0.04317731059465876,0.036247677105436936,0.03954253996960821,0.05086378822719102,0.05985027568268547,0.05860736585732479,0.04975155443236856,0.04396173187695106,0.045801267907777804,0.0491120180443213
0.045801267907777804,0.0491120180443213,0.048911696598070986,0.04707030158619027,0.04758279921871554,0.05125432421077693,0.053843360467948756,0.05211086765107918,0.04783579394285816,0.04370968854862099,0.04297189869997389,0.04861564494755352,0.057204622014647176,0.059895917506565845,0.05137325112856679,0.03640833285897149,0.030628730729241122,0.048149162911804294,0.07357343496140267,0.06949615578004613,0.03853369566864335,0.0261905029565288,0.04384315799552058,0.05930231140538551,0.056937686034377634,0.048910087289394694,0.04659819656012559,0.04899333247011575,0.04882436762667873,0.045115844588497586,0.04534491349342282,0.05238084493269834,0.05862860795058315,0.055959238420094974,0.046367635972241666,0.039078125871180674,0.04004284359404159,0.048269861215499865,0.056486351484190664,0.05664138608379737,0.05083764901448734,0.04815656276787594,0.050081474744409604,0.05027402888311555,0.04598641691657972,0.04137374302542291
0.05664138608379737,0.05083764901448734,0.04815656276787594,0.050081474744409604,0.05027402888311555,0.04598641691657972,0.04137374302542291,0.041171730172085114,0.04672972359083488,0.0560245528528971,0.06335592745096094,0.06278740584631434,0.05260877329419847,0.03714204914876081,0.02738358636153829,0.03296090511961869,0.05117750001165594,0.06840796514769007,0.07121573770568888,0.058901779281345726,0.043782603964080236,0.03548048304404803,0.03303975720708726,0.036326984211546814,0.051315815482984944,0.06899253632673907,0.06534725825797069,0.04515620215833056,0.038146526967473754,0.04712401867561919,0.05280961274470965,0.04942873236930666,0.04502679453865488,0.04673450727412072,0.05213215467532989,0.05297700258338513,0.048507842456563074,0.04583925547866022,0.04824572044380959,0.05230108498383579,0.05371213515302088,0.05086671548835591,0.04562167303876012,0.042836615120906425,0.04536693165626034,0.049984103056249014
0.041171730172085114,0.04672972359083488,0.0560245528528971,0.06335592745096094,0.06278740584631434,0.05260877329419847,0.03714204914876081,0.02738358636153829,0.03296090511961869,0.05117750001165594,0.06840796514769007,0.07121573770568888,0.058901779281345726,0.043782603964080236,0.03548048304404803,0.03303975720708726,0.036326984211546814,0.051315815482984944,0.06899253632673907,0.06534725825797069,0.04515620215833056,0.038146526967473754,0.04712401867561919,0.05280961274470965,0.04942873236930666,0.04502679453865488,0.04673450727412072,0.05213215467532989,0.05297700258338513,0.048507842456563074,0.04583925547866022,0.04824572044380959,0.05230108498383579,0.05371213515302088,0.05086671548835591,0.04562167303876012,0.042836615120906425,0.04536693165626034,0.049984103056249014,0.05253166832275552,0.05341273580403191,0.054006975834945466,0.05251726070870659,0.04736741123607356,0.041753205550521616,0.04087585306535836
0.05382310341981847,0.05831456447644742,0.05619521293052335,0.050415788432478646,0.0456313654948819,0.0428654701937158,0.042204885049651246,0.04428931972747432,0.04898325475876091,0.05548941999908883,0.06037819144782507,0.058944409624833785,0.05097726447678361,0.04100594453516612,0.03350747934366588,0.032744407069367196,0.04607171959428722,0.07007027195820689,0.07719804460465583,0.0538219055838509,0.030853334895255644,0.03285141125012467,0.044251648533130676,0.0500033953035394,0.05421887132999789,0.057991182285995646,0.05575587207911124,0.048574307114341284,0.04385666548380544,0.044672739657113866,0.04769940317971938,0.04954580613685504,0.04975341280432687,0.049457463280738516,0.05055527876553902,0.052918682574556064,0.0522968909813572,0.04665154770763468,0.04194511791227798,0.04502972817410991,0.0527956230103137,0.05610039556551139,0.052895324670903396,0.04816707733352635,0.04502320500622344,0.04451281218427712
0.04451281218427712,0.0477421212752881,0.05240955264235438,0.05372878115666726,0.050869582665670765,0.04737104830376654,0.046154924263001655,0.04710369612836594,0.0483512151843903,0.0498121953945412,0.052667033285101285,0.05432368830642103,0.051589684099868596,0.04652393853873632,0.04193849002000452,0.03900150878434318,0.04367416854812623,0.0604842376160057,0.07218184671841817,0.05744323539557565,0.03345362746773959,0.030661190656432212,0.04377766892756779,0.053042509255343484,0.05605466307725467,0.05665603342292186,0.05455219722602274,0.05030137785513806,0.045375261165973374,0.041596852994764386,0.042644370371596976,0.04919547047333351,0.05541797355251041,0.05485165681677256,0.049486547828104355,0.047564368461024256,0.05004469520233401,0.050055211798139446,0.04639834887350083,0.04469421577818487,0.047222258410902135,0.05115993311520727,0.053551646637232234,0.052598898959204006,0.04861978292601605,0.04617083978679033
0.048032073444104276,0.04937865072075847,0.04731702701896222,0.047704928205599365,0.05332656030054967,0.056114278111877886,0.04981968488216204,0.04108365948780376,0.03925524437810732,0.04566649286789425,0.056731053998010796,0.0645084676444661,0.059945255403544784,0.045681830083246354,0.03376305171965924,0.03149911103516922,0.04179077776886415,0.061284245706306535,0.07108788697357779,0.0585703730075396,0.041404713043417314,0.03947674073947989,0.04654462765845828,0.04890329882205223,0.04627025776174771,0.04624836387513971,0.0517551833534662,0.0570411473472012,0.05521370597761794,0.04802296496092759,0.04280412096779007,0.04354957750383112,0.04888412397376319,0.05316782350683364,0.052035398800741046,0.04873231391257177,0.047747477681145956,0.04777532989439723,0.048409791589050025,0.05139527834429116,0.05344057835218875,0.05081242082726738,0.04588478563979528,0.04338126225809599,0.045982943218303,0.05193255250435136
0.05193255250435136,0.05494676353620247,0.05168604844222394,0.047777916639022394,0.04890556131216724,0.051306014045117074,0.04895335707713133,0.04294704635379622,0.04045954842630735,0.04752455064216558,0.059741649847219705,0.06372229792068487,0.05412367748074107,0.040744442292317974,0.03382013480235869,0.035192581172765774,0.04715343743352583,0.06808350904106888,0.07564164317372399,0.0533176981588787,0.02762651795615266,0.029454107546082544,0.04820818077185159,0.05954585081636753,0.05858181186131528,0.05241891186014626,0.04623180939204223,0.04292257949421172,0.04550762835967171,0.052602329467289995,0.055895226451321174,0.05060101455525331,0.04385510646344412,0.04349701775771146,0.048384424400938104,0.05401575344525351,0.05592460389313846,0.05144231969041127,0.04452180998840356,0.042694245445074844,0.04789179701182752,0.053667165254302214,0.05333629332658562,0.048301400716342216,0.044959719468520336,0.046751553718907074
0.046751553718907074,0.051191147921725896,0.053346199130685806,0.05179874818009195,0.04899890457041248,0.04666847215165979,0.04484039567022163,0.04479097432854304,0.048046008726173706,0.052773362411088515,0.055813752843860406,0.056076116920515826,0.05378206468367841,0.04854255630168143,0.03981564112109395,0.03182156115559186,0.035621515666715634,0.05644328113019736,0.07555729854789198,0.0685458219759204,0.046044931526349295,0.035353633987509445,0.03700412891555305,0.040222371023737644,0.046554742957393716,0.056407218018921616,0.06169625716927024,0.05791923606472569,0.049479409609771215,0.04270966366440047,0.04018237117219899,0.04216749751813134,0.04815908764009432,0.05482790899817323,0.057346359176054455,0.05404898228688901,0.0482490152775711,0.045209724479938124,0.04565699065535207,0.046465315394829565,0.048390941732789655,0.05241577563436646,0.05287916302883112,0.048097575010750876,0.045925045363758896,0.049199262371526234
0.04985505115756786,0.0437772525165086,0.04721827776482995,0.053452492120817374,0.05330434543904926,0.04818106751540778,0.04456525855511818,0.045690168439655496,0.049138921828463605,0.05002771432496236,0.049462263555838326,0.05315375919306805,0.05829026407222833,0.05550734380234406,0.04351894133341072,0.03048181343034315,0.029246818216996238,0.05094262038096761,0.0814458683398635,0.08048711138355678,0.042016328349608625,0.016039150885011576,0.030742262167810227,0.05606788495677624,0.06319177486329261,0.05615375114587017,0.04841744534433945,0.04669066055115685,0.049558805166542014,0.05081977244128458,0.04778943859816433,0.044513039316143026,0.0453659099697103,0.04988977061646786,0.054089083821332595,0.05405918994097949,0.050355693249737196,0.04732683040100431,0.04683713353946518,0.04741281655834172,0.04795699097607106,0.04835684501828717,0.04909847851035613,0.05112785719792864,0.053393744508250504,0.05290445334616406
0.04909847851035613,0.05112785719792864,0.053393744508250504,0.05290445334616406,0.04948237169143506,0.04571352949373307,0.04298538875401202,0.04285152182950619,0.04808936497614492,0.057020129664749314,0.060825956935845416,0.05407595543271142,0.044629093400177344,0.041909264383301795,0.04258787211737372,0.041439811359423116,0.046680498078479155,0.06398901751839414,0.07146956885499009,0.05080981352245457,0.027998354942644483,0.03155761243060767,0.04956756521021445,0.05948413544060299,0.05727121260882106,0.05130408479196932,0.04869162937416446,0.048955586317704115,0.048831118392163614,0.04748357954916644,0.045682224992984494,0.045353822754975834,0.04840575185771458,0.05334587704273008,0.05566679794573921,0.05265346855212427,0.04693584228755393,0.04410460518950228,0.04630875855314738,0.05022405501398315,0.05155095196445369,0.04937718525393653,0.046719018511102696,0.04759531170234608,0.05209947555446415,0.0547476320993316
0.05209947555446415,0.0547476320993316,0.05154880481449357,0.04643392401458702,0.0448253369386899,0.04693803157842562,0.04995360916353769,0.05017748460483361,0.04714712552459162,0.046699363946567034,0.052630369472149795,0.058860347331594405,0.05716626824468292,0.04777599259022958,0.03648247259311127,0.030308651383786144,0.039624778871897325,0.06524265590439329,0.08036349599105391,0.061386914347205966,0.03152962507788985,0.026286073760255657,0.04215074227761676,0.05572289627051898,0.057508349945238436,0.053566704729859256,0.05154705535923175,0.05033778402994379,0.04731351811682685,0.045395287649395,0.04612367598913162,0.048121210055276656,0.05098257362216614,0.05285939469579229,0.05144736122926667,0.04826041463476809,0.046115285496023416,0.047152938973730116,0.05162947998777438,0.05404354056879507,0.04953441328130745,0.04318571566434089,0.04339409099212949,0.05027239917902982,0.05613214540810477,0.05517730632568458
0.0527649419747734,0.04814837698574552,0.04581833844655492,0.0489571971203647,0.05433369402569049,0.05509430902036627,0.050803711157104615,0.04624594338373951,0.045657954738151686,0.05155831932635467,0.06217171985754269,0.06853621538584051,0.062095336569288714,0.04609414774684546,0.032723645932373355,0.03230048834007618,0.04953241312552218,0.0759727487254086,0.0827874667526268,0.056005410190606876,0.02984052393749443,0.035372717649490126,0.053774385043100566,0.05952365529988433,0.05677653304161565,0.05522628834270467,0.053438580094299144,0.051217627603530894,0.05164058384244088,0.05337125076765914,0.05324100459942877,0.05171009866258932,0.052301174645330156,0.05483369697270369,0.05415475617149717,0.04980390182265098,0.04800514562813114,0.05188891269986337,0.057174229769586554,0.05793786268661856,0.05379662742594817,0.0501261632843894,0.05029213617476097,0.05186282022778899,0.05243712943382302,0.0525987283687849
0.05379662742594817,0.0501261632843894,0.05029213617476097,0.05186282022778899,0.05243712943382302,0.0525987283687849,0.05285910920599049,0.052939309643696954,0.052885284490884074,0.05307300226796542,0.05420370390607484,0.05636242003385098,0.05700754038505556,0.0529039345771541,0.0450381423358084,0.039684726749119,0.04691152356525832,0.06666146515402865,0.074143788333488,0.05535940567815405,0.03730311579728099,0.0400929620878389,0.049760926419571944,0.054144726943217675,0.05621777401435736,0.05989961606814555,0.06204005656050721,0.055875123714138664,0.04509107932408314,0.04244482136364794,0.04970160910897699,0.056170037224657014,0.05637148239566687,0.05446959217518495,0.05409400321239877,0.05427198236640048,0.05364263487238341,0.052398059107814116,0.05087070718354587,0.049103024133494357,0.048396760972649645,0.05088382314739964,0.05605207814265529,0.060146877287119545,0.0595113775010962,0.05389109119425188
0.05605207814265529,0.060146877287119545,0.0595113775010962,0.05389109119425188,0.04739516416266151,0.04525453535882118,0.04798039506115872,0.05148360986779016,0.05416932804522779,0.057272105284931006,0.059359288206609566,0.0585621589744262,0.0555145635834878,0.050560765009454764,0.04391750842897807,0.03804489282990753,0.04076388097681723,0.05984336063139649,0.07989716620027712,0.07318852946147952,0.047095560513851484,0.03191224364937431,0.0355803003888538,0.04900114351695441,0.06152857151013981,0.0642317744588794,0.05869814784452361,0.05266360130925157,0.04941538432580253,0.048512616389514346,0.049052884346512296,0.05124539615991219,0.05494378574810216,0.056738007473366846,0.05429135439137989,0.05092095258017651,0.05102382425302716,0.05400096041605125,0.05545895904523451,0.053277619027206194,0.049569363651447595,0.04832468964674305,0.05183188075334282,0.056627401282587586,0.05729903694557234,0.05393889237739812
0.05393889237739812,0.05058848314671185,0.0503838621714353,0.05312591394300847,0.0553793448470114,0.05375813924657319,0.048543460304298236,0.045755473362923585,0.05080979047925691,0.05944899253205551,0.06268621830724722,0.05809690764160126,0.05112046161357993,0.04657333635266081,0.04291315722154429,0.04001808770432748,0.048343734238879436,0.0702290325330634,0.0793748667601934,0.05878111374600036,0.035005766046903114,0.033919922759913755,0.0467548767282919,0.05719547415765582,0.06086895638967456,0.059752674688728344,0.056007349435260236,0.05111878101675289,0.0487704186980667,0.05091351834214352,0.05235603095936067,0.05029879398118212,0.05047754180761483,0.054635984610476473,0.0569947510274181,0.05562516623229007,0.053144389515805586,0.050592354393996675,0.04927647909570738,0.05152647468164303,0.055340790513600975,0.05579532831315315,0.05234973832876957,0.048940109604275875,0.04945287459435735,0.05449054556850276
