-0.008812497,-0.016392738,-0.020649623,-0.009820706,0.01441366,-0.004144861,-0.007132148,-0.002128442,-0.004929024,0.00171769,-0.006758737,-0.004966365,-0.003995497,-0.005750528,-0.010903598,-0.007393536,-0.002091101,-0.004667636,0.005302435,0.007916311,0.00377145,-0.013032041,-0.015347188,-0.017998405,-0.008737815,0.003323357,0.002875264,0.007953652,0.012770653,0.00720683,-0.016056668,-0.021433786,-0.030432988,-0.043054275,0.008289722,0.11340489,0.029536802,-0.072889805,-0.037154384,-0.022068584,0.006273303,0.011090304,0.007430877,0.004331566,-0.002949946,-0.011762443,-0.002315148,0,-0.006011915,-0.013853544,-0.010791575,0.008439086,0.000597457,-0.007356195,-0.001792372,-0.000373411,-0.005713187,-0.009783366,-0.004182202,0.002613876,0.002501853,-0.003846132,-0.01232256,-0.010903598,0.000485434,0.003808791,0.004555613,0.001194915,-0.004406249,-0.01471239,-0.004929024,-0.008103017,-0.006422667,-0.004480931,0.003510062,0.004518272,0.011837126,0.009634001,-0.005675846,-0.025503965,-0.039469533,-0.051306657,0.041523293,0.119043395,-0.007953652,-0.054891404,-0.03558606,-0.028192522,0.002091101,0.01336811,0.016056668,0.003360698,0.005227753,-0.006049257,-0.014637707,-0.01848384,-0.006086598,0.002352489,0.012098514,0.001418961,-0.003659427,-0.015235164,-0.010716893,0.005974575,0.003920815,-0.001643008,-0.005451799,-0.000149364,-0.00582521,-0.009036544,-0.004368907,-0.003995497,0.001904396,0.00171769,-0.003472721,0.003323357,-0.002277806,-0.004891683,-0.007766947,-0.008924521,-0.008364405,-0.006123939,-3.73E-05,0.00309931,0.0102688,0.012845335,0.003173993,-0.002800582,-0.03532467,-0.04451058,-0.045630813,0.07554103,0.11952883,-0.03215068,-0.06176216,-0.037602477,-0.009559319,0.004555613,0.015048459,0.01265863,0.005265094,-0.000709481,-0.00515307,-0.012621288,-0.012397242,-0.003024628,-0.004966365,0.009036544,0.002800582,-0.003472721,-0.016280714,-0.003286016,0.000261388,-0.000149364,0.001008209,-0.002128442,-0.003808791,-0.00377145,-0.001568326,-0.004630295,-0.007804288,-0.008028334,-7.47E-05,0.003211334,0.009895389,-0.004070179,-0.000970868,-0.002875264,-0.003920815,-0.011501055,-0.016616784,-0.000112023,-0.00205376,0.007505559,0.009634001,0.013032041,0.008028334,-0.004256884,-0.03420444,-0.03943219,-0.05448065,0.03797589,0.12871474,0.007057466,-0.056646433,-0.032449406,-0.02292743,0,0.012023831,0.006721396,0.012471924,0.011015622,-0.002613876,-0.015832622,-0.018707886,-0.007692264,0.000709481,0.010007412,0.001979078,-0.007057466,-0.00444359,-0.004592954,0.001904396,-0.000896186,-0.000784163,-0.004032838,-0.00787897,0.00171769,-0.006347986,-0.006310644,0.003323357,-0.000970868,-0.0027259,-0.00138162,-0.006758737,0.001904396,0.005787869,0.001306938,-0.012098514,-0.010940939,-0.008065675,0.001045551,0.002539194,0.00720683,0.006534691,0.002427171,-0.008476428,-0.000373411,-0.01952939,-0.03424178,-0.023972979,0.002837923,0.122852184,-0.012023831,-0.07176957,-0.045406766,-0.03558606,0.013592157,0.0247198,0.024047662,0.014301637,0.006758737,-0.005227753,-0.028939344,-0.040141672,-0.00855111,0.006758737,0.043240983,0.017400948,0.006385326,-0.021620492,-0.028267205,-0.011277009,-0.004294226,0.009932729,-0.001045551,0.006534691,0.003958155,-0.000746822,-0.008140357,-0.000634799,-0.019604072,-0.001082892,0.01814777,0.006721396,-0.006347986,-0.005675846,-0.012733311,-0.004219543,0.008775156,0.003211334,-0.005563823,-0.012247877,-0.000634799,0.013442792,0.02158315,-0.004929024,-0.028976686,-0.0438011,-0.048506077,0.06747535,0.10757968,-0.026288128,-0.061724823,-0.028117841,-0.019043956,0.005265094,0.01232256,0.016243374,0.003398039,0.002763241,-0.002539194,-0.008028334,-0.017438289,-0.011052962,-0.003510062,0.006982784,0.009858048,-0.001792372,-0.007393536,-0.003808791,0.001568326,-0.006870761,-0.002277806,-7.47E-05,-0.001530985,-0.001680349,-0.0075429,-0.010754234,-0.007094807,0.017288925,0.006273303,-0.01030614,-0.005937233,0.001792372,-0.000410752,-0.010978281,-0.003883473,-0.010007412,-0.010194117,0.006982784,0.012397242,0.011426373,0.013816203,-0.001755031,-0.027221654,-0.035362013,-0.036183517,-0.011277009,0.10567529,0.0680728,-0.055899613,-0.048431393,-0.029350096,0.000410752,0.009223249,0.01165042,0.012210537,0.002688559,-0.00309931,-0.006609373,-0.013816203,-0.006870761,-0.001680349,0.004480931,0.010343482,-0.006273303,-0.008849838,-0.004854342,-0.002912605,-0.0027259,0.002576535,0.003398039,0.003659427,-0.00410752,-0.008588451,-0.013666838,-0.005675846,0.007990994,-0.001157574,-0.001194915,0.000821504,0.005787869,-0.004331566,-0.009036544,-0.005451799,-0.001082892,-0.005041047,0.000112023,-0.005377117,-0.000634799,0.009111226,0.015459212,0.011202327,-0.008849838,-0.022852747,-0.042606182,-0.043016937,0.043987803,0.12374837,-0.007617582,-0.069081016,-0.025279919,-0.015496552,0.004182202,0.009484637,0.015981987,0.012471924,0.001605667,-0.013330769,-0.018073088,-0.007430877,-0.001344279,0.001979078,0.010380823,-0.005265094,-0.00205376,-0.006273303,-0.007057466,-0.004704977,0.004256884,0.005713187,-0.00377145,-0.002875264,0.000709481,-0.002613876,-0.004219543,-0.007766947,-0.004331566,-0.000522775,0.000410752,0.003995497,0.001904396,0.006347986,-0.001008209,-0.007580241,-0.013778863,-0.014189614,-0.005339776,0.00343538,0.014973777,0.011725103,0.011127645,0.005713187,-0.009634001,-0.03872271,-0.05593695,-0.039954968,0.10619806,0.09630267,-0.06333049,-0.03595947,-0.0308064,-0.005265094,0.009036544,0.011874466,0.006908102,0.012397242,-0.003547404,-0.010492846,-0.0123599,-0.011052962,0.00377145,0.008625791,0.004032838,-0.000410752,-0.009820706,-0.00649735,-0.001306938,-0.000373411,0.002427171,7.47E-05,0.000224047,0.001306938,-0.005899892,-0.008775156,0.000634799,-0.006908102,0.001904396,0.000896186,0.002501853,0.004742318,0.001904396,-0.005787869,-0.007766947,-0.005713187,-0.003472721,-0.001605667,-0.008812497,0.008177699,0.012882676,0.014226955,-0.00067214,-0.01232256,-0.028080499,-0.03050767,-0.040701788,0.06381592,0.06542159,-0.051605385,-0.028192522,-0.032075997,-0.007841629,0.002464512,0.015085801,0.01643008,0.009671343,-0.000746822,-0.013965568,-0.018595863,-0.004331566,0.004966365,0.005750528,0.00926059,-0.00067214,-0.005899892,-0.005787869,0.000186705,-0.007654924,0.003323357,0.003061969,-0.000970868,0.000261388,-0.003584745,-0.002539194,-0.006123939,-0.001157574,0.000224047,-0.001530985,0.003323357,0.002576535,0.002613876,-0.006684055,-0.003659427,-0.003584745,-0.007057466,-0.008663133,0.000261388,0.007057466,0.01747563,0.005675846,-0.001792372,-0.017774358,-0.025503965,-0.043054275,-0.020313554,0.123150915,0.004592954,-0.056235682,-0.02979819,-0.019454708,0.004480931,0.010866257,0.01441366,0.001530985,0.005414458,-0.003696768,-0.007430877,-0.012247877,-0.005675846,-0.001941737,0.00926059,0.009895389,0.002464512,-0.009447296,-0.006460009,-0.003136652,-0.001568326,0.004070179,-0.000149364,-0.003360698,-0.00138162,0.001456303,-0.002800582,-0.001755031,0.002464512,3.73E-05,-0.000410752,-0.001829713,-0.005265094,-0.006870761,-0.003472721,-0.006609373,0.006385326,0.010082094,0.018670544,0.009335272,-0.008812497,-0.030134259,-0.039730918,-0.039320167,0.05067186,0.120686404,-0.019902801,-0.05067186,-0.022329971,-0.010418164,0.007766947,0.004032838,0.015309847,0.008849838,0.003323357,-0.008065675,-0.011687761,-0.011463715,-0.004182202,0.006273303,0.006011915,-0.00138162,0.001045551,-0.003920815,-0.004518272,0.000448093,0.001306938,0.002240466,-0.004480931,-0.00616128,-0.002352489,-0.003360698,0.000746822,0.006347986,0.004256884,0.000896186,-0.001941737,-0.004742318,-0.003136652,-0.014152273,-0.003808791,-0.001045551,0.00477966,0.009559319,0.017699676,0.011762443,-0.009223249,-0.021695172,-0.043838438,-0.04114988,0.048468735,0.119864896,-0.009746024,-0.05884956,-0.025429282,-0.014002909,0.005638504,0.003883473,0.017737018,0.009746024,0.00238983,-0.006982784,-0.005526481,-0.010007412,-0.00787897,0.001605667,0.012434583,0.001493644,-0.009746024,-0.007393536,0.00138162,-0.000933527,0.00171769,0.005787869,-0.004294226,-0.001344279,-0.007692264,-0.00720683,0.001120233,0.000261388,0.004817001,0.003622086,0.002987287,-0.000410752,-0.004891683,-0.008625791,-0.007244172,-0.003547404,-0.003173993,0.00410752,0.006235962,0.022031244,0.007169489,-0.003173993,-0.024533097,-0.043315664,-0.05063452,0.053995214,0.12147056,-0.010642211,-0.05765464,-0.02942478,-0.021321762,0.003398039,0.014264297,0.012845335,0.008513768,0.006758737,-0.003398039,-0.012882676,-0.008439086,-0.005115729,-0.001605667,0.012994699,0.004667636,-0.006273303,-0.006796078,0.000112023,0.000373411,0.002576535,-0.004331566,0.004368907,0.003323357,-0.003659427,-0.006758737,-0.006908102,0.001232256,0.00067214,-0.001082892,0.002539194,0.006684055,0.005899892,0.001456303,-0.016616784,-0.009783366,-0.012733311,0.000933527,0.007505559,0.01609401,0.022441994,-0.000186705,-0.005265094,-0.037826523,-0.044659942,-0.051269315,0.096862786,0.11079101,-0.04458526,-0.05791603,-0.032673452,-0.012583947,0.009783366,0.018782567,0.017662335,0.006609373,-0.003920815,-0.010492846,-0.009484637,-0.00821504,-0.0027259,0.006422667,0.012583947,0.004406249,-0.007430877,-0.009036544,-0.001418961,-0.001605667,0.000373411,0.002315148,0.002613876,0.001008209,-0.001456303,-0.003696768,-0.003248675,-0.006049257,-0.000821504,0.004966365,0.00309931,0.003136652,0.002203124,-0.000448093,-0.004929024,-0.007356195,-0.010044754,-0.005227753,-0.001120233,0.011090304,0.017849041,0.013144064,0.003883473,-0.021433786,-0.038909417,-0.047460526,0.008924521,0.12621288,0.042718206,-0.070836045,-0.038648028,-0.022852747,0.00477966,0.009521978,0.019604072,0.011762443,-0.000896186,-0.000634799,-0.008177699,-0.01643008,-0.007020125,0.003958155,0.011277009,0.010754234,-0.006870761,-0.009559319,-0.001829713,-0.000373411,-0.000746822,0.001979078,0.004256884,0,-0.005190412,0,-0.005115729,-0.001082892,-0.007020125,0.007841629,0.007990994,0.004817001,-0.001493644,-0.010754234,-0.004817001,-0.003173993,-0.003286016,-0.005937233,0.009372613,0.009484637,0.014152273,0.003995497,-0.005638504,-0.026026739,-0.035474036,-0.049850356,0.0911496,0.093576774,-0.04626561,-0.048842147,-0.030470328,-0.00720683,0.009634001,0.014040249,0.016168691,0.010492846,-0.002352489,-0.01710222,-0.00855111,-0.001493644,-0.003510062,0.007953652,0.011613079,0.003136652,-0.008700474,-0.006609373,-0.003547404,0.000485434,0.003248675,0.000597457,0.004630295,-0.003323357,-0.003472721,0.000224047,-0.003808791,-0.004182202,0.001643008,-7.47E-05,0.002203124,0.002837923,0.004518272,-0.000896186,-0.00548914,-0.001643008,-0.00616128,-0.005003706,-0.006684055,0.004518272,0.010418164,0.021321762,0.010044754,-0.008513768,-0.021321762,-0.041784678,-0.0431663,0.059857767,0.11773646,-0.015608575,-0.05996979,-0.02946212,-0.007281513,0.00138162,0.009895389,0.0205376,0.007505559,0.00067214,-0.001979078,-0.011799784,-0.012509265,-0.000261388,0.004182202,0.010380823,-0.002651217,-0.004331566,-0.003472721,0.00067214,0.001008209,-0.002539194,-0.001157574,0.005003706,0.004331566,-0.001605667,-0.00377145,-0.005526481,-0.004592954,0.004219543,0.003173993,7.47E-05,-0.002912605,0.000522775,0.003360698,0.004256884,0.001306938,-0.008476428,-0.00515307,-0.008924521,-0.005302435,-0.003696768,0.0123599,0.021769855,0.021023033,0.003173993,-0.02091101,-0.036892995,-0.047609888,-0.025615988,0.09368879,0.09910325,-0.05851349,-0.041448608,-0.03151588,-0.007729606,0.011426373,0.015123141,0.01575794,0.004555613,-0.00343538,-0.00649735,-0.014077591,-0.006684055,0.000522775,0.010903598,0.009335272,-0.000970868,-0.008625791,-0.006534691,-0.001530985,-0.001306938,0.003622086,0.002501853,0.006908102,-0.000858845,-0.000709481,-0.008625791,-0.001643008,-0.005414458,-0.000448093,0.000149364,0.005937233,0.005601164,0.001194915,0.004518272,-0.000560116,-0.006235962,-0.011351692,-0.005937233,-0.002277806,0.001530985,0.008775156,0.010791575,0.011127645,0.009073885,-0.000373411,-0.02673622,-0.039954968,-0.056833137,0.07091073,0.12203068,-0.02498119,-0.05619834,-0.028864663,-0.017961064,0.003846132,0.01713956,0.011799784,0.014675048,0.009073885,-0.013144064,-0.01232256,-0.012770653,0.000858845,0.006347986,0.010231459,0.010044754,-0.007804288,-0.012061172,-0.001941737,-0.001904396,0.004630295,-0.000709481,0.007020125,0.001194915,0.000149364,-0.001829713,-0.008887179,-0.001643008,-0.001530985,-0.000410752,-0.001643008,0.009634001,0.00582521,0.000410752,-0.001456303,-0.007132148,-0.00444359,-0.005003706,-0.007654924,-0.003323357,0.010455505,0.010082094,0.012061172,0.012397242,-0.00309931,-0.019230662,-0.031627905,-0.0452574,0.007468218,0.119043395,0.038834732,-0.061090022,-0.030470328,-0.02330084,0.002016419,0.010156777,0.019043956,0.013293428,0.005041047,-0.000298729,-0.011575738,-0.016990196
-0.004227195,-0.007693496,-0.003762204,-0.003931292,-0.02553226,-0.039735638,-0.028449027,-0.010102998,-0.001056799,0.00215587,0.01665515,-0.008708023,-0.014372465,-0.015682895,-0.020797802,-0.018430572,-0.000929983,0.011962963,-0.007947127,-0.026631333,-0.038087033,-0.040581077,-0.008623479,0.0788372,0.09320966,-0.0607448,-0.11295067,-0.045484625,0.01187842,0.02612407,0.023418663,-0.001141343,-0.032972127,-0.03309894,-0.017373774,-0.000295904,0.009933909,0.014626097,0.007228504,-0.013104307,-0.030393537,-0.048655022,-0.056940325,-0.036649786,0.033437118,0.11603652,0.03478982,-0.06974873,-0.10699032,-0.07207368,-0.020501899,0.040116087,0.03732614,0.008623479,-0.008708023,-0.02075553,-0.028829474,-0.034874365,-0.005748986,0.008073944,0.001817694,-0.008116216,-0.008073944,-0.014372465,-0.021093706,-0.02248868,-0.019318284,0.027180867,0.061252065,-0.035297085,-0.054150376,-0.018092398,-0.008496664,0.001817694,-0.002409502,-0.00388902,0.007270776,-0.002536317,-0.013780657,-0.009976181,-0.027730403,-0.027392227,-0.002789949,-0.003085853,-0.004227195,-0.000972255,0.013062035,-0.005283995,-0.035381626,-0.018726476,-0.007735768,-0.002663133,-0.004819003,-0.012258867,-0.009173014,0.000887711,0.002536317,-0.02354548,-0.021009162,-0.007947127,-0.018811021,-0.000676351,0.013780657,0.004438555,-0.029590368,-0.03199987,-0.008581207,0.003593116,-0.000760895,-0.002916765,-0.039312918,0.009807094,0.022361865,-0.04261013,-0.032084413,-0.02937901,-0.010990708,0.002789949,0.023249576,0.009764822,-0.020544171,-0.02117825,-0.024052743,-0.019276012,0.006552153,-0.012174323,-0.021220522,-0.023080489,-0.013907474,0.02506727,0.023925927,0.008031672,-0.033183485,-0.04540008,-0.04924683,-0.03631161,0.005748986,0.025194086,0.05753213,0.018346028,-0.022869129,-0.038594294,-0.045991886,-0.042398773,-0.008285304,0.012047508,0.003170397,0.010694805,0.015471536,0.011497972,-0.002916765,-0.027603587,-0.04819003,-0.05685578,-0.049880907,0.005241722,0.1086812,0.07630088,-0.028660387,-0.05448855,-0.078160845,-0.03905929,-0.001817694,0.031450335,0.03872111,-0.002916765,-0.016359247,-0.01750059,-0.018853292,-0.011540244,-0.019191468,-0.01318885,-4.23E-05,-0.003297213,-0.003593116,-0.008792567,-0.006256249,-0.009342102,-0.007313049,-0.016401518,-0.016021071,-0.008834839,-0.010525717,-0.001352703,0.001437247,-0.013442482,-0.011751603,-0.006552153,-0.002747677,-0.018050125,-0.017585134,-0.019360555,-0.005664442,0.008412119,0.015936527,0.005072635,-0.018684205,-0.039651096,-0.04430101,-0.025616806,0.022192776,0.07727314,-0.044850547,-0.036396153,-0.021516426,-0.022150505,-0.009638006,-0.005706714,0.009426646,0.005748986,-0.00410038,-0.016697422,-0.021939145,-0.02764586,-0.005283995,-0.004607643,-0.009215286,-0.003550844,0.006087162,0.001099071,-0.001437247,-0.01665515,-0.021009162,-0.033014398,-0.022742312,-0.016824238,0.007270776,0.02485591,0.016021071,0.009511191,-0.015894255,-0.022023689,-0.055249445,-0.040073816,-0.016359247,0.022235049,0.03517027,0.009046199,-0.013484754,0.000929983,0.000634079,-0.036184795,-0.040665623,-0.053939015,-0.021896873,0.07477909,0.0639152,-0.0343671,-0.04299058,-0.027772674,-0.001817694,-0.000972255,-0.004523099,-0.008877111,-0.024982726,-0.024940453,0.015217904,0.006848057,-0.01208978,-0.015851984,-0.01707787,0.005495354,-0.000887711,-0.005030363,-0.016781967,-0.019106925,-0.021939145,-0.02248868,-0.009891638,0.00021136,0.020544171,0.020797802,0.022615496,-0.014161105,-0.069706455,-0.045315538,-0.014161105,0.013992017,0.019233739,0.01707787,0.005283995,-0.017754221,-0.027941763,-0.024982726,-0.004776731,-0.002240414,-0.012597043,-0.023291847,-0.02506727,-0.020205995,0.03478982,0.06120979,-0.041215155,-0.032338046,-0.034493916,-0.027180867,-0.008708023,0.000929983,0.0079894,0.005453082,-0.001479519,-0.015217904,-0.014795184,-0.023376392,-0.005791258,-0.010272086,-0.009680278,-0.003593116,-0.011032981,-0.012174323,0.003973564,-0.001352703,-0.011032981,-0.018768748,-0.007228504,-0.017162414,-0.014287921,-0.006721241,-0.0114557,-0.001775422,0.000972255,0.000972255,0.004861275,-0.010102998,-0.02764586,-0.034282558,-0.04345557,-0.030097632,0.018980108,0.04776731,0.06505654,0.020501899,-0.05144497,-0.08598116,-0.1110907,-0.055164903,0.099930905,0.16016844,0.036776602,-0.065859705,-0.09506963,-0.050049994,0.001479519,0.021009162,0.015386992,-0.003339485,-0.001437247,-0.002789949,-0.021770056,-0.033394843,-0.006002618,0.039693367,-0.011497972,-0.040158357,-0.03174624,-0.019276012,-4.23E-05,-0.000845439,0.023080489,0.004438555,-0.009807094,-0.01707787,-0.031619422,-0.023672296,-0.007186233,0.00042272,0.004480827,0.00972255,-0.004354011,-0.014668369,-0.013527026,-0.015640624,-0.013992017,-0.014541552,-0.006213978,-0.001141343,0.019529644,0.010694805,-0.018092398,-0.0423565,-0.04345557,-0.055207174,0.073088214,0.08695342,-0.03956655,-0.059688002,-0.026842691,-0.019022381,-0.005791258,0.016908782,0,0.001859966,-0.01513336,-0.0159788,-0.003508572,-0.00735532,-0.022615496,-0.006974873,0.005453082,-0.019360555,-0.00152179,-0.000760895,-0.009764822,-0.004776731,-0.012216595,-0.016063344,-0.003973564,-0.004184924,-0.005410811,-0.01166706,-0.010314358,-0.007820312,0.005706714,-0.015429264,-0.011751603,-0.009468918,-0.005241722,-0.011920692,-0.005326266,-0.008834839,-0.008116216,0.006002618,-0.001056799,-0.007820312,-0.009088471,-0.02595498,-0.029463554,-0.03829839,0.026250884,0.09143424,-0.058715746,-0.040327445,-0.024982726,-0.010906165,0.005410811,-0.010567989,0.004861275,-0.001183615,-0.003931292,-0.010483445,-0.011328884,-0.016359247,-0.011540244,-0.009003927,-0.002029054,-0.008327575,-0.006340793,0.004607643,-0.005410811,-0.016612878,-0.01187842,-0.02595498,-0.009257559,0.003043581,0.008031672,-0.000972255,-0.005537626,-0.013357938,-0.015682895,-0.009680278,-0.044047378,-0.009003927,0.023503207,0.025785893,0.023630023,-0.009046199,-0.03474755,-0.035043452,-0.047217775,-0.025785893,0.018219212,0.060913887,0.006594425,-0.035719804,0.000887711,0.016781967,-0.064718366,-0.06915692,-0.010652533,0.02075553,0.051698603,0.034874365,0.005875802,-0.027814947,-0.030985344,-0.04535781,-0.044258736,-0.01297749,0.019487372,0.04751368,0.024095016,-0.011582516,-0.036227066,-0.0479364,-0.020459626,-0.004227195,0.004861275,0.008792567,0.004945819,-0.012132051,-0.013949745,0.000169088,-0.009638006,-0.012385683,-0.013780657,-0.015429264,-0.003593116,0.000718623,-0.001775422,-0.008158487,-0.007397592,-0.013357938,-0.025997253,0.003339485,0.017585134,0.003339485,-0.024052743,-0.03998927,-0.038974743,-0.018007854,0.08657297,-0.005368538,-0.054404005,-0.011328884,-0.020205995,-0.002874493,-0.008369847,-0.003128125,0.00042272,0.001352703,-0.018092398,-0.009173014,-0.006594425,-0.010187541,-0.008327575,0.003339485,-0.000295904,-0.017542861,-0.018472845,-0.007186233,-0.000803167,-0.00042272,0.000591807,-0.012470227,-0.00367766,-0.015302448,-0.005368538,-0.009215286,-0.014414737,-0.004607643,-0.001352703,-0.003424028,-0.001479519,-0.005579898,-0.01513336,-0.016021071,-0.015048816,-0.006763513,0.008919383,0.00972255,0.014330193,-0.001606334,-0.048274573,-0.051614057,-0.04324421,0.045653712,0.10648306,-0.012892947,-0.044639185,-0.022361865,-0.02895629,-0.014245649,-0.016781967,-0.000126816,0.023883656,0.033986654,0.002705405,-0.020163722,-0.04734459,-0.044174194,0.005114907,0.010610261,0.008073944,0.006636697,-0.004015836,-0.007397592,-0.012470227,-0.012892947,-0.014499281,-0.011117525,-0.00410038,-0.002324958,-0.005918074,-0.007059417,0.002578589,0.003424028,-0.002494045,-0.020121451,-0.010863893,-0.012427955,-0.013949745,-0.005495354,0.007017145,0.001902238,0.001225887,0.015006544,-0.009384374,-0.023418663,-0.03825612,-0.054404005,0.007904856,0.11388065,0.030858528,-0.062182046,-0.039777912,-0.040538806,-0.005537626,0.010779349,0.018768748,0.000464992,0.005157179,-0.010567989,-0.014372465,-0.017965581,-0.009130742,-0.000464992,-0.010948436,0.001648606,-0.005241722,-0.002071326,-0.002832221,-0.004945819,-0.016232431,-0.002620861,-0.007439864,-0.010610261,-0.015006544,0.001352703,-0.003931292,-0.004438555,0.009638006,-0.004819003,-0.011709332,-0.02574362,-0.013146578,-0.011371156,0.004058108,0.005706714,-0.002620861,0.001014527,0.015048816,-0.006763513,-0.02096689,-0.039228376,-0.05529172,-0.004354011,0.104158096,0.042906035,-0.065944254,-0.020121451,-0.021474153,-0.012132051,-0.003001309,0.008369847,0.001859966,0.006932601,-0.00972255,-0.011751603,-0.008031672,-0.01644379,0.001986782,-0.004184924,-0.009088471,-0.001056799,-0.001648606,-0.005157179,-0.009553462,-0.003001309,-0.000972255,-0.013019762,-0.00583353,-0.008200759,0.001183615,0.001014527,-0.012174323,8.45E-05,0.000845439,-0.008708023,-0.009342102,-0.010694805,-0.017331501,-0.002240414,-0.002494045,0.008919383,0.010948436,0.007397592,-0.004058108,-0.04299058,-0.04802094,-0.06788876,0.09312512,0.10889256,-0.038002487,-0.06746604,-0.029463554,-0.019064652,0.004819003,0.012597043,0.004438555,0.005030363,-0.006509881,-0.004903547,-0.015851984,-0.00152179,-0.014372465,-0.008750295,0.005030363,0.001859966,-0.004649915,-0.013780657,-0.001775422,-0.005960346,-0.008496664,-0.001775422,-0.00388902,-0.003973564,-0.008919383,-0.004227195,-0.002705405,-0.002959037,0.001310431,-0.008665751,-0.004945819,-0.016190158,-0.014668369,-0.009680278,0.00735532,0.010610261,0.014457009,0.006932601,-0.007862584,-0.029801728,-0.05491127,-0.043751474,0.039439734,0.13036671,-0.002494045,-0.073003665,-0.03157715,-0.016105615,-0.004903547,0.009807094,0.008877111,0.000972255,0.011159796,-0.016697422,-0.017881038,-0.006171706,-0.004227195,-0.010483445,0.003001309,-0.00215587,-0.004776731,-0.009807094,0.002113598,-0.002240414,-0.004649915,-0.006340793,-0.005875802,-0.008073944,-0.006467609,-0.001859966,-0.00152179,-0.002409502,0.003170397,-0.002409502,-0.010314358,-0.018853292,-0.008412119,-0.005579898,0.007059417,0.007228504,0.010441173,0.008792567,-0.01318885,-0.038382936,-0.04087698,-0.037960216,0.04324421,0.11624788,-0.05402356,-0.0506418,-0.028787201,-0.014837457,0.006848057,0.006383065,0.015217904,0.000338176,-0.008538935,-0.012258867,-0.016908782,-0.008200759,0.004861275,-0.00152179,-0.005579898,0.002451774,-0.003424028,-0.018768748,0.00367766,-0.004607643,-0.001479519,-0.006213978,-0.000972255,-0.007397592,-0.006002618,0.009003927,-0.003846748,0.000803167,-0.017585134,-0.002916765,-0.008623479,-0.012470227,-0.005791258,0.004480827,0.008116216,0.006467609,0.001902238,-0.007524408,-0.029421281,-0.030858528,-0.037917946,0.006509881,0.11011844,-0.03478982,-0.053939015,-0.02595498,-0.010356629,0.001564062,0.005199451,0.012597043,-0.002578589,-0.003339485,-0.001817694,-0.003339485,-0.022742312,-0.000169088,0.001564062,0.002198142,-0.005072635,0.001352703,-0.010060726,-0.006425337,-0.001352703,-0.002747677,-0.005579898,-0.00604489,-0.002324958,-0.000718623,-0.007904856,0.002282686,0,-0.006467609,-0.000591807,-0.015260176,-0.007862584,-0.002705405,-0.007862584,-0.004438555,0.007059417,0.018895565,0.007651224,-0.008412119,-0.026293157,-0.043962833,-0.038594294,0.03872111,0.11189387,-0.009299831,-0.06573289,-0.025363173,-0.017246958,0.007017145,0.010906165,0.006974873,0.000380448,-0.003931292,-0.005368538,0.001099071,-0.017796494,-0.006721241,-0.00021136,8.45E-05,0.000676351,-0.008243032,-0.003719932,-0.001141343,-0.005453082,-0.003254941,-0.006213978,-0.00042272,-0.00152179,-0.015048816,0.000338176,0.00173315,0.005495354,-0.014287921,-0.000972255,0.000676351,-0.01124434,-0.007524408,-0.013696114,-4.23E-05,0.009299831,0.009976181,0.004269468,0.003973564,-0.013653842,-0.020375082,-0.037917946,-0.052628584,0.04578053,0.112697035,-0.045315538,-0.048232302,-0.02333412,-0.016190158,0.008792567,-0.001014527,0.008158487,0.008116216,0.002916765,-0.00604489,-0.012385683,-0.013907474,-0.002198142,-0.003719932,0.003550844,0.000549535,-0.008665751,-0.000169088,-0.004692187,0.004058108,-0.005748986,-0.012216595,0.000169088,-0.003085853,-0.001902238,-0.005072635,-0.009384374,0.002029054,0.00562217,-0.002367229,0.003212669,-0.005748986,-0.021854602,-0.009130742,-0.0034663,-0.002959037,0.0034663,0.006636697,0.018726476,0.008792567,-0.008369847,-0.03309894,-0.053685382,-0.0506418,0.086699784,0.108385295,-0.032972127,-0.053262666,-0.035550714,-0.004354011,0.005748986,0.001268159,0.005791258,0.012047508,-0.002494045,-0.003043581,-0.009933909,-0.010018454,-0.008961654,-0.008073944,0.005791258,-0.006171706,0,-0.004903547,0.002747677,0.005072635,-0.012723859,0.001606334,-0.004015836,-0.012047508,-0.00777804,-0.004776731,0.000634079,0.001141343,0.014457009,-0.002536317,-0.00583353,-0.007101689,-0.015809711,-0.008369847,-0.007059417,0.002113598,0,0.011836148,0.004058108,0.004184924,-0.003297213,-0.009849366,-0.018346028,-0.038932472,-0.03605798,0.028491298,0.11798103,0.013696114,-0.07283458,-0.035043452,-0.017754221,0.000338176,0.000591807,0.020290539
0.019086462,-0.001479571,0.007693768,-0.011910544,0.004512691,0.004882583,0.004956562,0.00251527,0.00909936,0.006658068,-0.053190567,0.010504952,0.044535078,-0.010061081,-0.00554839,-0.010061081,-0.003329034,0.01057893,0.016497213,0.0010357,-0.006510111,-0.015757428,-0.008211617,0.012798286,0.00554839,0.002145378,0.005992261,-0.008877425,0.004216777,0.006658068,0,-0.005400433,-0.007693768,-0.00658409,-0.03225464,0.028111843,0.06584089,0.00303312,-0.019382376,-0.027150122,-0.043203466,-0.021675711,0.036989268,0.121028885,-0.018938504,-0.09802156,0.013686029,0.010652909,0.019974204,-0.001923442,-0.001109678,-0.013833986,-0.002589249,-0.003403013,0.021675711,0.002071399,0.007471832,-0.005770326,-0.014869685,0.003698927,-0.009173338,0.012354415,0.000887742,0.001775485,0.002441292,0.013981943,-0.012502372,7.40E-05,-0.005918283,-0.007471832,-0.030923028,0.01057893,0.05903487,0.007989681,-0.012576351,-0.025374638,-0.017828828,-0.000961721,0.001109678,0.01916044,0.005252476,0.00658409,0.011392694,-0.00806366,-0.01161463,-0.01819872,-0.016571192,-0.024634851,-0.002145378,0.073608644,0.10527145,-0.05903487,-0.093212955,-0.005844304,-0.03336432,0.028185822,0.06295573,0.017828828,-0.010726888,-0.016497213,-0.017236998,-0.000887742,-0.000739785,0.000887742,-0.00251527,-0.004438712,0.011466673,0.009173338,0.007767746,-0.005992261,-0.012724308,-0.013981943,0.002885163,0.008877425,0.003698927,0.001257635,-0.008433553,-0.00303312,0.011762587,0.007471832,-0.006953982,-0.011910544,-0.010504952,-0.003329034,0.00858151,0.004734626,0.001183657,0.011022802,0.003994841,-0.005918283,-0.03321636,-0.009543231,0.051193144,0.000591828,-0.03440002,-0.03987443,0.084557466,0.05511401,-0.10172048,-0.023007324,0.018272698,0.007027961,0.016793128,0.004438712,-0.012798286,-0.00710194,-0.006880004,-0.006436132,0.014795707,0.011392694,0.000739785,-0.003403013,-0.015535492,-0.004364734,-0.031070985,0.004216777,0.055927772,0.007619789,-0.007619789,-0.018272698,-0.007249896,-0.010652909,0.00051785,-0.004068819,0.008137639,0.00806366,0.007323875,0.009987102,-0.001923442,-0.006288176,-0.027520014,-0.002663227,0.00355097,-7.40E-05,0.003920863,0.005770326,0.006140219,0.009173338,0.000443871,-0.020861946,-0.010283017,-0.019900225,-0.020640012,-0.006362154,0.123840064,0,-0.12250845,-0.002589249,0.020935925,0.013316136,-0.020566033,0.004438712,0.047716156,-0.00503054,-0.0292955,-0.016867107,0.003255056,0.009247317,0.007915704,-0.006510111,-0.008803446,0.01464775,0.0010357,-0.005992261,-0.006362154,-0.002293335,-0.013464093,-0.002811184,0.010356995,0.010800866,0.010209038,0.006806025,-0.02271141,-0.006436132,-0.041501958,0.011540651,0.058960892,-0.000665807,-0.00503054,-0.023007324,-0.001553549,0.0010357,-0.013242158,0.011762587,0.01057893,0.005474411,-0.000369893,-0.01464775,-0.000369893,-0.011688609,-0.033882167,0.021305818,0.09646801,-0.08833037,-0.06939187,0.03639744,0.013464093,0.010283017,0.005918283,0.007693768,-0.009617209,-0.0151656,-0.012872265,0.004734626,0.005178498,0.016793128,0.005326455,-0.000961721,-0.015609471,-0.011170759,-0.033512276,0.013316136,0.065544985,0.013242158,-0.01568345,-0.03077507,-0.017606892,-0.013094201,0.004808605,0.020344097,0.009617209,0.015831407,0.0151656,0.001331614,-0.022489475,-0.03329034,-0.041280024,-0.028703671,0.05970068,0.06783832,0.02115786,0.003329034,-0.052302822,-0.06406541,-0.02522668,0.039726473,0.05999659,-0.001257635,-0.025966465,-0.013538072,0.08189424,-0.06561896,-0.08211617,0.02877765,0.022119582,0.018420655,0.007915704,-0.00355097,-0.012798286,-0.013168179,-0.007545811,0.008359575,0.005474411,0,-0.006732047,-0.003107098,0.0151656,0.002071399,-0.020566033,-0.004068819,0.005770326,0.008359575,0.004734626,0.001331614,-0.01671915,0.004956562,0.009543231,0.007989681,-0.00554839,-0.009543231,-0.034104105,0.006806025,0.057333365,0.013242158,-0.017384956,-0.033142384,-0.008285596,-0.001701506,0.01464775,0.019678291,0.010874844,-0.000813764,-0.004216777,-0.00909936,-0.024117002,-0.013833986,-0.016941084,0.007027961,0.118513614,-0.049565617,-0.09180736,0.033734214,0.005400433,-0.002071399,-0.03832088,0.012872265,0.04682841,0.007027961,-0.008729467,-0.005844304,-0.00503054,-0.016275277,-0.008729467,-0.000739785,0.000961721,0.004808605,0.012872265,0.013390115,-0.00251527,-0.013094201,-0.00909936,-0.010356995,0.006510111,0.004586669,-0.007323875,-0.000739785,0.008433553,0.006732047,0.000443871,-0.002811184,-0.006658068,0.003846884,-0.013168179,-0.008211617,-0.00658409,0.013760007,0.011392694,0.014425814,0.011244738,-0.008803446,-0.0475682,-0.011466673,0.03624948,0.000147957,-0.011540651,-0.013612051,0.09957511,-0.058221105,-0.08884822,0.025966465,0.01464775,0.015017643,0.00710194,0.003846884,-0.009691188,-0.007249896,-0.017236998,-0.003255056,0.010652909,0.016867107,0.002737206,0.000961721,-0.008803446,-0.0141299,-0.029591413,-0.00710194,0.053116586,0.020566033,-0.003772905,-0.009839146,-0.018050762,-0.008877425,-0.010283017,0.000739785,0.005326455,0.013760007,0.011688609,0.009913123,-0.008951402,-0.007471832,-0.020418076,-0.014795707,-0.000369893,0.003107098,0.013981943,0.018346677,0.011244738,-0.001109678,-0.007841725,-0.02123184,-0.023895066,-0.01568345,-0.010800866,0.008359575,0.12591146,-0.04083615,-0.098687366,0.015535492,-0.003846884,0.004660648,-0.019012483,0.005696347,0.048234005,0.009543231,-0.016571192,-0.022563454,-0.006140219,0.002145378,0.00051785,-0.010874844,0.007027961,0.023821088,0.002885163,-0.017384956,-0.011688609,-0.012428394,0.009247317,0.007841725,-0.00199742,0.002219356,0.001183657,0.007989681,-0.007323875,0.01109678,-0.047124326,0.000147957,0.03980045,0.006658068,0.006732047,-0.003403013,-0.02426496,-0.017458934,-0.001405592,0.024043024,0.007471832,0.01671915,-0.009025381,-0.019382376,-0.011688609,-0.008211617,-0.034473997,0.05511401,0.049195725,-0.11585038,-0.014203879,0.03772905,0.016349256,0.005696347,-0.014499793,-0.002737206,-0.001849463,-0.00858151,-0.004438712,0.012502372,0.006214197,0.001775485,0.002589249,-0.007841725,-0.002071399,-0.006140219,-0.027372058,0.00051785,0.049047768,0.019826246,-0.014721728,-0.017902805,-0.013242158,-0.001479571,0.006510111,0.000739785,-0.000887742,0.01671915,0.007545811,-0.004660648,-0.014943664,-0.021971624,-0.014277857,0.013760007,0.014277857,0.010652909,0.01057893,0.011910544,-0.006362154,-0.027889907,-0.059182826,0.017828828,0.04497895,0.026040444,-0.010209038,0.022489475,0.036989268,-0.11977125,-0.03624948,0.012946243,0.00909936,0.020566033,0.036027547,0.022489475,-0.004068819,-0.024043024,-0.031958725,-0.014203879,-0.005474411,0.012280437,0.011244738,0.025966465,0.000295914,-0.010061081,0.005770326,-0.001701506,-0.022859367,-0.001849463,0.001553549,-0.007915704,0.001701506,0.014277857,0.014351836,0.005400433,0.002885163,-0.015239578,-0.016793128,-0.022489475,-0.017902805,0.0668766,0.03883873,-0.014351836,-0.042019807,-0.023747109,-0.004216777,0.007619789,0.034621954,0.019456355,0.001183657,-0.016201299,-0.020935925,-0.021823667,-0.028629692,0.013242158,0.09180736,-0.07575402,-0.02219356,0.026854208,-0.003329034,0.005622369,-0.012354415,-0.003698927,-0.001109678,0.001257635,0,0.007175918,0.00503054,0.008655489,-0.008137639,0.009025381,-0.004882583,-0.015313556,-0.037581097,0.009839146,0.05008347,0.017458934,0.002663227,-0.019382376,-0.020640012,-0.000591828,-0.000591828,0.001257635,0.010874844,0.005918283,-0.004068819,0.006953982,0.001701506,-0.001553549,-0.007693768,-0.014277857,7.40E-05,-0.003846884,0.006880004,0.023599153,0.009173338,0.00199742,-0.014795707,-0.022341518,-0.026040444,-0.004438712,0.003846884,0.10046285,-0.032624535,-0.096763924,0.021823667,0.024560874,0.01057893,-0.010726888,-0.03950454,0.008951402,0.047642175,0.007693768,0.00051785,-0.011466673,-0.007249896,-0.01464775,-0.010874844,0.010504952,0.006362154,-0.005252476,0.010874844,0.011688609,0.000961721,0.001257635,-0.008211617,-0.017236998,-0.009395274,0.004882583,0.004438712,0.002663227,0.009469252,0.001849463,0.017976783,0.002811184,-0.022637432,-0.016793128,-0.019456355,-0.006436132,0.013760007,0.024930766,0.017754849,0.007397853,-0.007249896,-0.013020222,-0.01716302,-0.032180663,-0.023969045,0.013020222,0.10571533,0.007619789,-0.068504125,0.021009903,-0.000295914,0.005918283,0.005918283,-0.004734626,-0.044091206,0.002219356,0.05348648,0.006953982,0.007175918,-0.007841725,-0.012576351,-0.031588834,0.000739785,0.014203879,-0.005178498,0.013316136,0.009543231,0.01768087,-0.020640012,-0.005400433,-0.014721728,-0.007397853,0.005326455,-0.007397853,0.009025381,0.01109678,0.006214197,0.007397853,-0.00909936,-0.012576351,-0.014351836,-0.00909936,-0.002589249,0.001257635,0.02367313,0.029961307,0.006732047,-0.004956562,-0.031218942,-0.018346677,-0.0565196,-0.021675711,0.07826929,0.12975834,-0.000147957,-0.12835276,-0.002811184,-0.002663227,0.007175918,0.011836565,0.021453775,0.011984522,0.002441292,-0.022933345,-0.007175918,-0.003476991,0.003920863,0.003698927,0.005474411,-0.018050762,-0.002071399,0.009913123,-0.005622369,0.01213248,0.01057893,-0.000221936,-0.026780229,0.001331614,-0.015387535,-0.001405592,0.008507531,0.016349256,0.005474411,0.010874844,-0.007545811,-0.01265033,-0.036915287,-0.015091621,0.05060132,0.000295914,-0.005326455,0.004364734,0.013316136,-0.01161463,-0.007915704,-0.006362154,-0.011170759,-0.00355097,-0.021453775,-0.007841725,0.0878865,0.07131531,-0.10356995,-0.052598737,0.009025381,0.00554839,0.014499793,0.004586669,0.01161463,-0.00355097,0.008507531,-0.009839146,-0.0141299,-0.001553549,-0.001849463,7.40E-05,-0.002367313,-0.000665807,0.012798286,-0.000813764,0.002145378,0.005400433,-0.009247317,-0.002145378,-0.01213248,-0.003624948,-0.005696347,0.00554839,0.009765167,0.008211617,0.012502372,0.003624948,-0.015017643,-0.021527754,-0.03735916,0.00303312,0.0513411,0.008729467,0.009395274,0.00503054,-0.015609471,-0.015313556,-0.006658068,-0.005104519,-0.022341518,-0.008359575,0.013464093,0.103200056,0.038024966,-0.13249555,-0.03647142,0.023525175,0.016793128,0.004956562,0.010430973,0.009173338,-0.01265033,0,-0.001701506,-0.003255056,-0.009025381,0.000591828,0.001701506,0.004142798,-0.005622369,0.001553549,0.004734626,0.005400433,-0.009395274,0.000591828,0.001701506,-0.003920863,-0.005178498,-0.009469252,-0.001701506,0.004364734,0.001553549,0.017606892,0.010356995,0.003994841,-0.016423235,-0.013760007,-0.04638454,-0.002885163,0.053856373,0.032920446,0.011762587,-0.008285596,-0.029147543,-0.015905386,-0.01568345,-0.015461514,-0.004216777,0.03225464,0.09765167,-0.09595016,-0.06510111,0.03639744,0.005178498,0.010061081,-0.007767746,0.004068819,-0.010800866,-0.005400433,0.003920863,0.009395274,0.015387535,-0.001183657,-0.016571192,-0.013464093,-0.006510111,-0.013020222,0.017089041,0.017828828,0.001257635,0.007767746,-0.011022802,-0.004882583,-0.001849463,-0.012576351,-0.004882583,-0.003181077,-0.000147957,0.010948823,0.009025381,0.006658068,0.00503054,7.40E-05,-0.013538072,-0.02877765,-0.032180663,0.007693768,0.06976176,0.029221522,-0.004808605,-0.023821088,-0.02123184,-0.015905386,-0.020640012,-0.009839146,0.026040444,0.116368234,-0.07175918,-0.06783832,0.016275277,-0.000591828,0.011984522,0.0010357,0.007767746,0.000147957,-0.008729467,-0.011244738,0.009617209,0.015979363,-0.007175918,-0.00858151,-0.004956562,-0.000147957,-0.010209038,-0.007619789,0.01568345,0.015831407,0.009691188,-0.005474411,-0.009025381,-0.011170759,-0.03684131,-0.0010357,0.047864113,0.015387535,0.000295914,-0.007619789,-0.005770326,-0.011910544,-0.008359575,-0.001479571,0.001479571,-0.000147957,0.005696347,0.01464775,0.002071399,-0.002219356,0.005918283,-0.008285596,-0.00710194,-0.023081303,-0.01716302,-0.02322926,0.06998369,0.10216436,-0.10527145,-0.02219356,0.002071399,0.003181077,0.009173338,0.002737206,0.002663227,-0.010356995,0.006732047,0.005622369,-0.003255056,0.004290755,-0.001479571,-0.00909936,-0.015757428,-0.007619789,0.003994841,0.009025381,0.013316136,0.001775485,0.007249896,-0.006362154,-0.008951402,-0.009839146,-0.03943056,0.003846884,0.053264543,0.018568613,-0.001331614,-0.004364734,-0.01975227,-0.020935925,-0.003476991,0.002885163,0.00554839,0.002885163,0.016941084,0.015017643,-0.007397853,0,-0.017458934,-0.01916044,-0.009395274,-0.016941084,-0.000369893,0.103791885,0.042759594,-0.11940136,0.012798286,0.004660648,0.000961721,0.012872265,-0.003772905,0.000369893,0.006806025,0.008655489,-0.004068819,0.005400433,-0.000369893,-0.001849463,-0.050231423,-0.004734626,0.048603896,0.022341518,-0.005844304,-0.000221936,-0.008359575,-0.010209038,-0.013464093,-0.000813764,-0.007027961,0.000369893,0.013686029,0.018642591,0.010726888,-0.016793128
-0.13128766,-0.024498306,-0.056775007,0.026751861,-0.0430356,-0.08425382,0.09370421,0.028641937,-0.13921145,-0.09275917,-0.024934478,-0.008069175,0.003271287,-0.047833487,-0.053939894,-0.003562068,0.002035468,-0.031113576,-0.05830161,-0.042381343,-0.041727085,-0.058228914,0.015411397,0.010104643,-0.03089549,-0.045725327,-0.07923785,-0.046524975,0.008141871,-0.007051441,-0.02260823,-0.009450385,-0.044852983,-0.08890632,-0.040563963,0.023189792,0.07901976,-0.096902795,-0.12619899,-0.02384405,0.02907811,0.02551604,-0.033657912,-0.033003654,-0.070150934,-0.046888452,-0.03198592,-0.000290781,-0.029877758,-0.016356437,0.000872343,-0.0353299,-0.015702179,-0.055757273,-0.03831041,-0.04136361,-0.014539055,-0.004870583,-0.015047922,-0.023480574,-0.039255448,-0.027115336,-0.028714633,-0.025806822,-0.03336713,-0.014757141,-0.024934478,-0.002544335,-0.025079869,-0.048342355,-0.025661431,-0.025879517,-0.038019627,-0.023625964,0.037583455,-0.03104088,-0.057720046,-0.020063896,-0.038092323,-0.003925545,-0.020863542,-0.032858264,-0.002907811,-0.030168539,-0.031549748,-0.03416678,-0.03402139,-0.021953972,-0.014102883,-0.007851089,-0.014248273,-0.023625964,-0.044344116,-0.044852983,-0.017810341,-0.017955732,-0.005888317,0.000581562,-0.042962905,-0.047906183,-0.002907811,-0.012212805,-0.018537294,-0.04179978,-0.068697035,-0.035402596,0.054594148,-0.004579802,-0.04507107,-0.046815757,-0.0646261,-0.017301476,0.06397184,-0.05045052,-0.11667591,-0.015484093,-0.008868823,0.012721673,0.005524841,0.012794368,-0.046524975,-0.06288141,-0.06259063,-0.07502152,0.035547987,0.008650738,0.013812101,0.00123582,-0.019773114,-0.07785664,-0.044852983,-0.020281982,0.001890077,0.015702179,-0.042817514,-0.03293096,-0.006179098,0.009304995,-0.022390144,-0.050668605,-0.04630689,-0.030677404,0.013666711,0.016792608,-0.02137241,-0.043399077,-0.046961147,-0.050232433,-0.019191552,0.044634897,0.057429265,-0.05968282,-0.07872898,-0.019482333,-0.04965087,-0.0322767,0.033149045,0.016865304,-0.028205765,-0.022026667,-0.036638416,-0.038019627,-0.009450385,0.002035468,-0.027769594,-0.029877758,-0.01890077,-0.007342223,-0.021299714,-0.025588736,-0.005161365,-0.007124137,-0.007269527,-0.02551604,-0.042672124,-0.046379585,-0.025152564,-0.012067415,0.022971706,-0.008650738,-0.003271287,-0.011049681,-0.054594148,-0.05582997,-0.027842289,-0.005161365,-0.012576282,0.07364031,0.002398944,-0.111223765,-0.009813862,-0.021081628,-0.00799648,0.007560309,-0.022317449,-0.038383104,-0.007705699,-0.006324489,-0.006906051,-0.010831595,-0.04078205,-0.018682685,-0.029586976,0.003343983,-0.019409638,-0.01970042,0.001817382,-0.006906051,-0.04565263,-0.04289021,0.01184933,0.0107589,-0.007487613,-0.06557114,-0.01751956,0.006397184,-0.007560309,0.011922025,0.001817382,-0.02907811,-0.07807472,-0.038092323,0.021590495,-0.003343983,0.046888452,0.011922025,-0.09355882,-0.025297955,-0.013884797,0.003198592,-0.009014213,-0.018973466,-0.009741167,-0.003634764,-0.013957492,-0.012648977,-0.033585217,-0.031477053,-0.002907811,-0.010976986,-0.014466359,-0.006906051,-0.021445105,-0.018682685,-0.001526601,-0.025734127,-0.001453906,-0.019555029,-0.03671111,-0.023989439,-0.001308515,0.002544335,-0.013521321,-0.002907811,-0.013085149,-0.040709354,-0.005961013,-0.018028427,-0.020209286,-0.03184053,0.010904291,0.04092744,-0.08250914,-0.012430891,0.0215178,-0.012285501,-0.032858264,-0.04492568,0.024934478,-0.005597536,-0.027696898,-0.024643697,-0.027696898,-0.005015974,0.005597536,0.004434411,-0.018464599,-0.026969947,-0.042672124,-0.039909706,0.002108163,0.0215178,0.020718152,-0.024789087,-0.045289155,-0.022680925,-0.002108163,-0.016719913,-0.027914984,-0.01722878,-0.002180858,-0.001890077,0.006251793,-0.02442561,-0.023480574,-0.036056854,-0.021299714,-0.021008933,0.05154095,0.011631244,-0.0845446,-0.02384405,-0.018391903,0.01214011,-0.008941518,-0.00537945,-0.018101122,-0.010031948,-0.014684445,-0.035111815,-0.004361717,-0.009886557,-0.014684445,-0.030604709,0.014248273,0.002108163,-0.007633003,-0.011703939,-0.021154324,-0.03322174,-0.014466359,-0.027042642,-0.007560309,0.021808581,0.012794368,0.000654257,-0.009304995,-0.04398064,-0.058083523,0.010540814,0.020572763,0.006760661,-0.014539055,-0.006324489,-0.025443345,-0.036783807,-0.00276242,0.03751076,-0.022971706,-0.054957625,-0.010904291,0.019046161,0.016937999,0.003852849,-0.05154095,-0.042672124,0.01875538,-0.011049681,-0.012430891,-0.006324489,-0.020354677,0.007705699,0.002253553,-0.043253686,-0.014175578,-0.000581562,-0.015702179,0.002398944,-0.03213131,-0.033294436,0.012503587,0.029732367,-0.014175578,0.005888317,0.010395424,-0.016211046,-0.16269203,-0.109987944,0.16894381,0.077275075,0.005161365,-0.02646108,-0.026533775,-0.05503032,-0.092686474,-0.008941518,0.019336943,0.04289021,0.045798022,0.009450385,-0.03983701,-0.07095058,-0.043907944,0.019555029,0.024789087,0.008796128,0.024861783,-0.05626614,-0.002544335,-0.001671991,-0.012212805,-0.009304995,-0.010177339,0.005961013,-0.009959253,0.016065655,-0.020718152,-0.016429132,-0.027333422,-0.020790847,0.011558549,0.017737646,-0.006324489,-0.025952213,-0.012576282,-0.016065655,0.010904291,0.00537945,-0.010250034,-0.007414918,-0.043253686,-0.034530256,0.019336943,0.028351156,-0.020354677,0.042163257,0.02646108,-0.09014214,-0.050305128,-0.008650738,0.05321294,0.008214566,-0.005015974,-0.01766495,0.005524841,0.016283741,-0.011195072,-0.006106403,-0.059755515,-0.05779274,0.01766495,0.069496684,0.031477053,-0.011049681,-0.037946932,-0.051104777,-0.001526601,-0.002471639,0.017592255,-0.009450385,-0.023044402,0.002907811,0.003925545,-0.008505347,0.000581562,-0.007414918,-0.025806822,-0.00799648,-0.002544335,-0.007342223,-0.001671991,0.000945039,-0.019555029,0.020136591,-0.018246513,-0.033875998,-0.004361717,0.04994165,-0.033730607,-0.05750196,0.01890077,0.00799648,0.023262488,-0.009813862,-0.008432652,-0.05626614,0.005452145,0.021590495,0.013666711,0.002835116,-0.028569242,0.001526601,-0.014829836,-0.012285501,-0.004434411,0.004216326,-0.014030187,0.01199472,-0.020281982,-0.007560309,0.020209286,-0.022390144,-0.005088669,-0.011776635,-0.011776635,-0.005597536,0.017883036,0.00261703,-0.007269527,-0.02246284,-0.003125897,-0.007269527,0.014466359,0.006542575,-0.023989439,-0.007196832,-0.011922025,-0.015556788,-0.007560309,0.06578922,0.004652497,-0.06593461,-0.01584757,0.009086909,0.027478812,-0.006542575,-0.012576282,-0.014829836,-0.002980506,0.015193312,0.014829836,-0.019482333,-0.02646108,-0.002398944,0.006033707,0.019191552,-0.03198592,-0.00138121,-0.003053201,-0.006033707,0.009086909,0.001671991,0.021081628,-0.03184053,-0.044852983,-0.017374171,0.018973466,0.03518451,0.017810341,0.00537945,-0.029586976,-0.056920398,-0.006106403,0.04630689,0.022535535,-0.007414918,-0.01199472,-0.05277677,0.008650738,0.01970042,0.06833356,-0.028932719,-0.07901976,0.003053201,0.010613509,0.035838768,-0.006033707,-0.006106403,-0.03431217,-0.012794368,0.015556788,0.004652497,0.008941518,0.000654257,-0.021154324,-0.004725193,-0.022317449,0.001017734,0.009959253,0.022899011,-0.010031948,-0.025443345,0.013448626,0.000945039,0.003343983,-0.03184053,-0.009741167,0.007414918,0.002907811,0.00276242,0.002689725,0.008505347,0.008578043,-0.02813307,-0.025806822,0.021227019,0.023989439,-0.03983701,0.025007173,0.035693377,-0.038528495,-0.012867063,-0.012430891,0.02246284,0.006469879,0.001744687,0.004507107,-0.018464599,-0.023916744,0.011340463,0.019627724,-0.011776635,0,0.012721673,-0.000290781,-0.010976986,-0.005234059,-0.015629483,0.023480574,0.000218086,0.001744687,-0.001163124,-0.011049681,-0.008287261,0.002907811,0.031186271,-0.010831595,-0.013303235,-0.004361717,-0.005452145,0.026242994,0.000654257,-0.015484093,-0.015266007,-0.015338702,0.000872343,0.075893864,-0.029659672,-0.06789739,0.02246284,0.016865304,0.00123582,-0.002689725,0.011267767,-0.005452145,0.000872343,-0.019191552,0.013957492,0.005306755,-0.006978746,0.003198592,-0.01199472,-0.003925545,0.007342223,0.002544335,0.004725193,0.006687965,-0.00276242,-0.007342223,-0.004797888,-0.002398944,-0.003053201,0.01722878,0.001817382,0.003198592,0.003198592,-0.008069175,-0.005888317,-0.014248273,0.011703939,0.013157845,0.006397184,0.018101122,-0.029877758,-0.030822795,0.001526601,0.042454038,0.013521321,-0.0215178,-0.002544335,0.005161365,0.001308515,-0.003780154,0.009450385,0.005015974,-0.006833355,-0.010831595,-0.002253553,0.014393664,0.005088669,0.011340463,-0.011195072,-0.011267767,-0.006760661,0.009595776,0.020572763,-0.005234059,-0.002398944,0.00276242,-0.001599296,-0.020427372,0.027914984,-0.00937769,0.005524841,-0.002108163,0.013012454,-0.006033707,-0.015920265,-0.001817382,-0.004143631,0.025152564,0.013957492,0.014393664,-0.013666711,-0.024716392,-0.028860023,0.014466359,0.055611882,0.034384865,-0.046524975,-0.003925545,0.003562068,0.001671991,0.003489373,0.011049681,0.009595776,0.001017734,-0.013884797,-0.005306755,0.001962772,0.015411397,0.022317449,-0.01199472,-0.007778394,-0.017374171,0.014320969,0.007705699,0.011340463,0.005088669,-0.002108163,-0.010104643,0.005670231,-0.014539055,0.003707459,0.006106403,0.011413158,0.014829836,-0.012358196,-0.006906051,-0.003925545,0.011267767,0.007705699,-0.006251793,-0.014320969,0.002398944,0.001890077,0.07407648,-0.042017866,-0.059319343,0.000945039,0.02413483,0.029805062,0.006469879,0.005088669,-0.020936238,-0.00123582,-0.001090429,0.011631244,-0.00276242,0.000726953,0.002180858,0.019336943,0.002835116,-0.015629483,0.013375931,0.001962772,-0.009668471,-0.001090429,0.003925545,0.0107589,0.013521321,-0.016792608,0.007633003,0.007269527,0.000654257,-0.000654257,-0.007196832,0.007560309,0.013812101,0.008432652,-0.013812101,0.005524841,-0.001526601,0.03612955,0.005452145,-0.011922025,-0.04565263,-0.005524841,0.05335833,-0.005597536,0.002689725,-0.016865304,0.0107589,0.001017734,0.002180858,0.010468119,0.01323054,0.006324489,-0.021881277,-0.02660647,0.030168539,0.03642033,0.015556788,-0.011413158,-0.017955732,-0.005597536,-0.000872343,0.019046161,-0.000290781,0.018464599,0.009595776,-0.02166319,0.014539055,0.022680925,-0.003416678,-0.002689725,-0.011485853,-0.016283741,0.030023148,0.010395424,0.010613509,-0.008214566,0.009159604,0.00261703,0.005524841,-0.017156085,-0.007414918,0.003416678,0.035693377,0.060773246,-0.058374304,-0.010686205,-0.008578043,0.023625964,0.020572763,0.007560309,0.004943279,0.0107589,-0.017446866,-0.021808581,0.017592255,0.004143631,0.031549748,0.009232299,-0.001453906,-0.018246513,-0.004797888,0.011558549,0.014902531,-0.003416678,0.002035468,0.015047922,-0.002398944,0.003125897,0.01323054,-0.00138121,-0.000218086,0.01199472,0.003271287,-0.010904291,-0.003489373,0.01766495,0.025661431,0.0292235,-0.004870583,-0.012358196,-0.022244753,-0.007269527,-0.000290781,0.067751996,0.05263138,-0.06578922,-0.000508867,0.007414918,0.023407878,0.019118857,-0.011195072,0.001017734,0.01214011,-0.009450385,0.008214566,0.013157845,0.009232299,-0.00537945,0.007051441,0.019918505,0.005961013,0.000726953,-0.008359957,-0.006760661,0.016429132,0.010831595,0.021953972,0.01214011,-0.010540814,-0.000290781,-0.011631244,0.01875538,0.007414918,0.010104643,0.004216326,0.010613509,0.013594016,0.004725193,-0.009959253,-0.006179098,-0.009959253,0.001017734,0.02631569,0.08112793,-0.015556788,-0.06658887,0.011267767,0,0.026242994,0.014902531,0.006906051,-0.00276242,0.010976986,0.005961013,0.01214011,-0.010322729,-0.011413158,-0.002835116,0.030168539,0.02936889,0.000363476,-0.008359957,-0.012285501,0.009086909,0.023916744,0.003416678,0.000945039,0.003343983,0.002980506,0.02166319,0.009886557,0.004725193,-0.019264247,0.007414918,0.015484093,0.017010694,0.007923785,-0.005234059,0.028496547,-0.010177339,-0.026170298,-0.003852849,0.025734127,0.063099496,-0.027188031,-0.02907811,0.007051441,0.013739406,0.016647218,0.013957492,0.000508867,0.002326249,-0.005670231,0.001163124,0.013448626,0.014466359,0.008359957,0.007124137,0.00937769,-0.019336943,0.001744687,0.012430891,0.015266007,0.011122377,0.003271287,0.003780154,0.007051441,0.007196832,-0.003852849,0.004652497,0.013812101,0.007560309,-0.00276242,0.015047922,-0.005306755,0.01613835,0.012285501,0.012576282,0.001599296,-0.025661431,0.002689725,0.005088669,0.07414918,0.00537945,-0.05706579,0.011776635,0.009232299,0.013085149,0.015556788,0.003707459,-0.007342223,0.002835116,0.01766495,0.009523081,-0.006106403,-0.002108163,0.01599296,0.018828075,-0.005088669,-0.000654257,0.010322729,0.003343983,0.007851089,0.002108163,0.026097603,-0.011485853,-0.010613509,0.020863542,0.004361717,0.01722878,0.009450385,-0.014757141,-0.004070935,0.007705699,0.0199912,0.012067415,0.00123582,0.006324489,0.007051441,0.00537945,-0.010322729,0.034530256,-0.002544335,-0.041000135,0.022971706,0.029150805
0.014658021,0.026593838,0.002931604,-0.024499834,-0.039367255,-0.02052123,0.038215555,-0.003455105,-0.025232736,-0.02104473,-0.0692068,-0.03434165,0.037796754,0.10595655,-0.002617504,-0.11517016,-0.031410046,-0.001884603,0.014972121,0.005025607,-0.010051214,-0.008585412,-0.022929331,-0.000732901,0.003141004,-0.012982818,-0.007433711,-0.011307616,-0.022405831,-0.010679415,0.010470015,0,-0.02774554,0.001570502,0.015495622,-0.03612155,0.000628201,0.032352347,-0.04345056,-0.011202916,0.002303403,-0.012878118,0.02879254,0.005967909,-0.057166282,-0.03538865,-0.001256402,-0.04324116,0.08763402,0.048476167,0.00711961,-0.032666445,-0.12574488,-0.105118945,0.037377954,0.05695688,0.19013546,0.04952317,-0.18217826,-0.07632641,-0.039786056,0.016123822,0.011098215,0.024081035,0.077059306,0.017380225,-0.037901454,-0.06564699,-0.045963366,0.031933546,-0.005235008,-0.004711506,0.020311829,0.001779903,0.009841814,-0.024290435,-0.011412316,-0.002094003,-0.020207128,-0.007957211,-0.013715719,0.02795494,0.031619444,-0.04774327,0.004920907,0.034969848,0.002617504,-0.024604535,-0.044183463,-0.024185734,0.031095944,0.02774554,0.023034032,-0.02125413,-0.037377954,0.000942301,0.017380225,0.005967909,-0.029734842,-0.023034032,-0.039262556,0.09758054,0.008690112,-0.10386255,0.012982818,-0.013925119,-0.001151702,0.010993515,0.030467743,0.005025607,-0.025337435,-0.037377954,-0.001361102,0.03612155,-0.003978605,-0.018008426,-0.006596109,0.013925119,0.012982818,-0.004083306,-0.027222037,-0.009004213,0.013925119,0.018950727,0.004083306,0.008585412,-0.027640838,-0.014867421,-0.00711961,0.010993515,0.001989303,0.027536139,0.001989303,-0.011412316,-0.011098215,-0.030258343,-0.025128035,-0.007433711,0.032875847,0.054025277,0.032457046,-0.02156823,-0.046591565,-0.05496758,-0.001570502,0.019893028,0.00753841,0.10386255,0.027117338,-0.11967227,0.024813935,-0.005549108,-0.016961424,0.007852512,0.025756236,0.004711506,0.00701491,0.001151702,0.004397406,-0.00753841,-0.031305343,-0.005025607,-0.002617504,0.039786056,0.034027547,-0.01402982,-0.032771148,-0.018950727,0.022301132,0.02104473,-0.025756236,-0.003036304,0.013506319,0.015914422,-0.003664505,-0.023452833,0.002198703,0.001047002,0.015076821,0.011621716,-0.018950727,0.000942301,0.011098215,0.002512804,-0.006386709,-0.006596109,0.004292706,0.038006153,0.008480712,-0.018427227,-0.02177763,-0.018741326,-0.001047002,-0.020625928,0.10721295,0.060411986,-0.11276206,-0.03622625,0.012982818,0.012564017,0.013820419,0.006491409,0.015914422,-0.003559805,0.009527713,-0.011202916,-0.015390921,-0.00711961,0.011935817,0.018427227,0.010051214,-0.014658021,-0.001675202,0.026489137,-0.017799025,0.005653808,0.001465802,-0.010470015,-0.000523501,-0.002408103,-0.000837601,0.040414255,0.003978605,-0.018531926,-0.020416528,-0.0001047,0.023766933,-0.010574715,0.009737114,-0.0003141,0.002408103,0.006177309,0.009632413,0.020835329,-0.004397406,-0.018427227,-0.006072609,-0.002094003,-0.036435653,-0.013192219,0.15150112,-0.017589625,-0.09433483,-0.002826904,-0.02052123,0.022510532,0.015600322,0.018427227,0.024709234,0.005967909,-0.04240356,-0.033608746,0.032457046,0.023766933,0.008271311,0.006596109,-0.00711961,-0.003141004,0.010679415,-0.006805509,-0.019264827,-0.008376012,0.044706963,0.010365315,0.008585412,-0.000418801,-0.015705023,0.005653808,0.008061911,0.003350405,-0.005025607,0.001989303,0.014762721,-0.000418801,-0.009841814,0.017589625,0.03549335,-0.004502107,-0.023452833,0.002094003,-0.023452833,-0.018322526,-0.005653808,0.11600776,0.08260842,-0.10072154,-0.05800388,0.001256402,0.031933546,0.008899513,0.009841814,0.019055426,0.008585412,-0.009841814,0.004188006,0.018322526,-0.013192219,-0.005235008,0.009841814,0.004711506,0.01402982,0.031305343,-0.009946514,-0.009841814,0.009737114,-0.019474227,0.013925119,0.038006153,0.006491409,-0.003036304,-0.010365315,-0.009946514,0.016542623,0.023348132,0.009004213,-0.001047002,-0.010784115,-0.000837601,0.009527713,0.012982818,0.00722431,-0.010679415,0.001779903,0.025860935,0.009946514,-0.001151702,-0.002198703,0.003769205,-0.02177763,-0.013296919,0.001675202,0.11548426,0.041775357,-0.10920225,0.007433711,-0.011726417,0.008061911,0.039471954,0.018217826,0.02104473,-0.000418801,0.000628201,-0.015809722,-0.010470015,0.006805509,0.02156823,0.009527713,0.014658021,0.004920907,-0.003455105,0.003141004,-0.001047002,0.006596109,-0.010470015,0.018636625,0.020102428,0.008480712,0.001361102,-0.009423013,0.010888815,0.00711961,0.003978605,0.005444408,0.003141004,-0.001989303,-0.01423922,0.03413225,0.010574715,0.011412316,0.008166611,-0.012040517,0.008690112,-0.003978605,-0.014658021,-0.003873905,0.031305343,0.03517925,0.022929331,-0.017275523,0.012249917,-0.025442136,-0.026384437,-0.016961424,0.08554002,0.016752023,-0.06533289,0.029734842,-0.005025607,0.011935817,-0.012773418,0.009423013,0.02146353,0.005130307,0.008899513,0.019997729,0.012982818,-0.018636625,-0.001047002,-0.007433711,0.018427227,0.016856724,0.005235008,0.026175037,0.002617504,-0.024813935,-0.004188006,0.018322526,-0.001779903,0.026803238,0.006386709,-0.000837601,0.00732901,-0.004711506,0.001884603,0.009841814,0.017903725,0.006072609,-0.004397406,0.00691021,0.005235008,0.007852512,-0.000523501,0.010470015,0.002094003,-0.005339708,0.020835329,0.016228523,0.018217826,-0.001151702,-0.016228523,-0.019683627,-0.01423922,0.019055426,0.1369478,-0.014867421,-0.0743371,0.017066125,-0.017484924,0.017066125,0.013296919,0.015705023,0.017066125,0.013506319,0.000732901,0.002094003,-0.013820419,0.000942301,0.015809722,0.009737114,0.019160127,0.001884603,-0.008061911,-0.004188006,0.02146353,0.020102428,-0.001047002,-0.004083306,0.006386709,0.005653808,-0.002198703,0.022615232,-0.0001047,0.013506319,0.003873905,0.012564017,0.012982818,-0.008585412,-0.017170824,0.010470015,0.010679415,0.025965637,0.024918634,-0.001675202,0.00711961,-0.006177309,-0.005025607,-0.031514745,-0.017799025,0.098836936,0.046172764,-0.05004667,0.02125413,-0.016961424,0.00701491,0.014658021,-0.012564017,0.029106641,0.023243433,-0.0002094,-0.018008426,0.002408103,0.029944243,-0.008585412,0.005967909,0.009632413,0.000942301,0.009946514,0.009632413,0.003664505,-0.019578928,0.019893028,0.025756236,-0.002303403,0.006386709,0.002722204,0.006282009,-0.013401619,0.009527713,0.029839542,0.011307616,-0.005653808,0.007747811,-0.005235008,0.005444408,0.002722204,0.003350405,0.032247644,0.006177309,0.001361102,0.000732901,-0.005130307,-0.030153641,-0.00701491,0.10700355,0.060935486,-0.083864816,-0.031619444,0.023662234,0.008376012,0.020625928,0.016752023,0.002408103,-0.009841814,0.003455105,0.012145218,0.012040517,0.001989303,-0.007852512,0.02135883,0.004188006,0.006805509,0.014553321,-0.006491409,-0.020311829,0.030886544,0.018636625,0.014867421,0.00670081,-0.025023336,0.011517016,0.014553321,0.00753841,-0.000418801,0.017380225,-0.009004213,0.000418801,0.032980546,0.024290435,-0.010155914,-0.02135883,-0.012145218,0.008899513,0.013401619,0.038320255,0.024395134,-0.003873905,-0.023243433,-0.008376012,-0.015705023,-0.024813935,0.068369195,0.10396725,-0.04868557,-0.07475591,0.029106641,0.003664505,0.019055426,0.003873905,0.008585412,0.01413452,0.017484924,0.001989303,-0.008061911,-0.011412316,0.015705023,0.018636625,0.002094003,0.009946514,-0.007957211,0.022510532,0.020416528,0.002931604,-0.014867421,-0.010365315,0.004920907,0.018741326,0.028583141,0.012459317,-0.002512804,0.000628201,-0.021882331,0.00732901,0.016961424,0.01423922,0.027326738,0.002094003,-0.004711506,-0.008690112,0.009946514,-0.007747811,-0.012564017,0.028583141,0.05601458,-0.006072609,-0.027431438,-0.01402982,-0.019264827,-0.03654035,0.109830454,0.09423013,-0.083550714,-0.05664278,-0.007643111,0.020625928,0.052350074,0.004920907,-0.0003141,-0.008376012,-0.011202916,0.004188006,0.007643111,0.019474227,0.004502107,-0.000628201,0.013611019,0.016333222,-0.003455105,0.004711506,-0.000942301,-0.0002094,-0.013192219,0.012564017,0.03413225,0.004292706,0.009527713,-0.014867421,-0.00691021,-0.008271311,0.02167293,0.02114943,0.012668718,0.008166611,-0.001361102,-0.008690112,0.000837601,0.016856724,-0.0002094,0.014972121,0.010888815,-0.005235008,0.022301132,0.019264827,0.005549108,-0.033922847,-0.029106641,-0.018322526,0.079676814,0.12469787,-0.0692068,-0.041147158,-0.007747811,-0.036854453,0.03507455,0.039786056,0.030572442,0.002722204,-0.018217826,-0.001465802,0.004502107,0.000942301,-0.006177309,0.008690112,0.025756236,0.006596109,0.011412316,-0.02104473,0.011621716,0.012354617,0.000732901,0.003664505,0.003036304,0.006596109,0.01402982,0.004606807,-0.0003141,0.006282009,0.006072609,0.011726417,0.006177309,0.012145218,-0.019788329,-0.004606807,0.005235008,0.00701491,0.03528395,0.012878118,0.018217826,-0.001465802,-0.02921134,-0.032980546,-0.003245705,0.0001047,0.111715056,0.07758281,-0.08564472,-0.015181521,-0.022510532,0.002303403,0.023766933,0.024290435,0.02774554,0.012982818,-0.017903725,-0.010365315,0.005235008,-0.004083306,0.02135883,0.006596109,0.002303403,0.012668718,-0.001779903,0.006491409,-0.005653808,0.001361102,0.032666445,0.011831117,-0.009423013,0.007643111,-0.030048942,0.022405831,0.02868784,0.004711506,0.005444408,-0.002094003,0.007852512,0.016123822,-0.015390921,0.002722204,0.019055426,-0.00732901,0.02167293,-0.004816207,-0.005130307,0.013715719,0.02177763,0.006282009,-0.015809722,0.017484924,0.019369528,-0.016752023,-0.032038245,-0.004292706,0.12511668,-0.042194158,-0.069939695,0.014658021,0.013087519,0.02837374,-0.004502107,0.015390921,0.001361102,0.016123822,-0.001465802,-0.02219643,0.004502107,0.023871634,0.023452833,0.013715719,-0.002722204,-0.016019123,0.013715719,0.0001047,-0.010470015,0.009737114,0.010993515,0.036959153,-0.000418801,-0.004397406,-0.013506319,-0.01423922,0.017589625,0.009737114,0.013087519,0.007433711,0.013715719,-0.010993515,0.000523501,0.013401619,0.005130307,0.014867421,-0.005967909,-0.007643111,0.008376012,0.014867421,-0.005758508,0.011202916,0.018846026,0.013192219,0.001989303,0.003245705,-0.02094003,-0.018217826,-0.026593838,0.054129977,0.13275978,-0.038634356,-0.05779448,-0.017694324,0.017799025,0.020311829,0.018217826,0.04208946,-0.000732901,-0.01434392,-0.024604535,0.008376012,0.004292706,0.003978605,0.023348132,0.007433711,0.002198703,0.010784115,0.008166611,-0.024499834,0.006491409,0.00711961,0.013820419,0.022719933,0.002512804,0.007957211,0.004188006,-0.014658021,-0.013192219,0.008061911,0.009004213,0.031305343,0.013611019,-0.015390921,0.004083306,0.001047002,-0.017694324,0.006805509,0.013611019,0.017484924,0.007747811,0,0.003978605,0.009841814,0.003978605,-0.003245705,0.003245705,-0.007643111,-0.014762721,-0.019683627,0.08658702,0.10386255,-0.065751694,-0.10428134,-0.000732901,0.022405831,0.041670658,0.03622625,0.005549108,-0.005549108,-0.02073063,-0.005863208,0.017066125,0.00670081,0.006282009,-0.001465802,-0.004083306,0.020102428,0.007747811,-0.005130307,0.004502107,0.008166611,0.008480712,0.002303403,-0.006282009,0.016647324,0.000837601,0.005025607,0.00691021,-0.001465802,0.012982818,0.002303403,0.022091731,-0.007433711,-0.012773418,0.011726417,0.008794813,-0.024395134,-0.003036304,0.05004667,0.016437924,0.020416528,-0.002722204,-0.047533866,-0.05695688,0.002198703,0.10993516,0.051826574,-0.05727098,0.008271311,0.010260615,-0.015495622,-0.008480712,0.001256402,0.033922847,0.009737114,0.003350405,-0.000418801,0.000837601,-0.004292706,0.013087519,0.005444408,0.004083306,0.004292706,-0.013192219,0.031514745,-0.009737114,-0.000942301,0.015076821,0.001256402,0.008480712,0.012459317,-0.008899513,-0.001884603,-0.000837601,-0.011935817,0.02073063,0.02868784,0.026070336,0.011307616,-0.02900194,-0.027536139,-0.016856724,0.012249917,0.022405831,0.016752023,0.032142945,0.032247644,0.001570502,-0.020416528,-0.0696256,-0.036959153,0.024081035,0.143858,0.0745465,-0.10239674,-0.004711506,-0.018008426,-0.005549108,0.041775357,0.023138732,-0.001151702,-0.002408103,-0.018531926,0.024604535,0.02146353,0.007433711,-0.020835329,0.000837601,0.020311829,0.004920907,0.011935817,-0.001151702,0.003559805,0.008690112,-0.00711961,0.003873905,0.003664505,0.005863208,0.018741326,-0.001675202,0.001151702,0.0002094,0.00711961,-0.0002094,-0.010574715,0.02135883,0.020311829,0.015286221,-0.017799025,-0.009737114,0.008376012,-0.000732901,0.005235008,0.016647324,0.01434392,0.00701491,0.002931604,0.005863208,-0.002931604,-0.018322526,-0.040100157,0.011726417,0.1436486,-0.058736783,-0.04093776,-0.001151702,-0.026070336,0.024081035,0.03612155,0.005967909,-0.012982818,-0.004606807,0.020416528,0.005444408,-0.00701491,0.010470015,-0.010260615
0.01669011,-0.008518911,-0.002694757,0.02781685,0.02972926,0.044767745,0.02972926,-0.002520902,0.011300596,0.018863302,0.035205703,0.016603183,0.01590776,0.001825481,0.024687456,0.02303583,0.041812204,0.04007365,-0.00521566,0.007041141,0.044767745,0.080842726,-0.03703118,0.003216323,0.038856663,0.0367704,0.022166554,-0.003998672,0.007301923,0.02373125,0.04224684,0.046767082,0.01669011,-0.008518911,-0.002694757,0.02781685,0.02972926,0.044767745,0.02972926,-0.002520902,0.011300596,0.018863302,0.035205703,0.016603183,0.01590776,0.001825481,0.024687456,0.02303583,0.041812204,0.04007365,-0.00521566,0.007041141,0.002520902,0.025382876,0.04007365,0.033988714,0.008953549,-0.001303915,0.027295286,-0.008605838,0.091100186,0.018341737,-0.05120039,0.02972926,0.036857326,0.029816188,0.012865294,0.020514928,0.008953549,0.015560051,0.05007033,0.028512273,-0.031467814,0.008692766,0.043550756,0.06024087,0.018602518,-0.02520902,-0.017907098,0.045115456,0.051026534,0.02633908,0.01521234,0.019993361,0.002520902,0.025382876,0.04007365,0.033988714,0.008953549,-0.001303915,0.027295286,-0.008605838,0.091100186,0.018341737,-0.05120039,0.02972926,0.036857326,0.029816188,0.012865294,0.020514928,0.008953549,0.015560051,0.05007033,0.028512273,-0.031467814,0.008692766,0.043550756,0.06024087,0.018602518,-0.02520902,-0.017907098,0.045115456,0.051026534,0.02633908,0.01521234,0.019993361,0.014690775,-0.002781685,0.0245136,0.028164562,0.03164167,0.017733242,0.020949567,0.012691438,0.002173191,0.025904443,0.040160578,0.02677372,0.028512273,0.007475779,0.000260783,-0.019906433,0.03598805,0.12847908,0.007736562,-0.033988714,0.017211676,0.01486463,0.03529263,0.023905106,0.022514263,0.022427335,0.014516919,0.010518246,0.008431983,0.05354744,0.05389515,-0.000173855,-0.004954876,0.022514263,0.019558724,0.013126076,0.029555405,0.029033838,0.027295286,0.009040477,0.024426673,0.03451028,0.022775047,0.00964897,0.016777039,0.016429327,0.007041141,0.035466485,0.03824817,0.039812867,0.014603847,-0.002260119,0.027382212,0.004172528,0.032424018,0.023470469,0.014343063,-0.004607166,0.079364955,0.081972785,-0.05346051,-0.019732578,0.019037157,0.037639678,-0.004954876,0.022514263,0.019558724,0.013126076,0.029555405,0.029033838,0.027295286,0.009040477,0.024426673,0.03451028,0.022775047,0.00964897,0.016777039,0.016429327,0.007041141,0.035466485,0.03824817,0.039812867,0.014603847,-0.002260119,0.027382212,0.004172528,0.032424018,0.023470469,0.014343063,-0.004607166,0.079364955,0.081972785,-0.05346051,-0.019732578,0.019037157,0.037639678,0.038769737,0.040247507,0.018167881,0.011213668,0.005998008,0.010257464,0.033467147,0.015473124,0.023122758,0.015994688,0.03164167,0.03451028,0.01486463,0.00669343,0.020862639,0.013299932,0.01851559,0.035031848,0.02416589,0.021036493,0.02112342,0.016863966,0.012691438,0.019906433,0.032076307,0.008258128,0.017037822,0.020428,0.0326848,0.042159915,0.008953549,0.008605838,0.000521566,0.02825149,0.009214331,0.0719761,0.008258128,-0.01590776,0.027295286,0.013908425,0.024948237,0.016429327,0.033641003,0.015299268,0.026165225,0.033206366,0.018167881,0.001564698,0.015733907,0.023644323,0.03007697,0.023905106,0.02373125,0.026426008,0.024339745,0.010083608,0.004954876,0.02303583,0.026078297,0.022166554,0.023644323,0.018080954,0.029903114,0.018776374,0.000521566,0.02825149,0.009214331,0.0719761,0.008258128,-0.01590776,0.027295286,0.013908425,0.024948237,0.016429327,0.033641003,0.015299268,0.026165225,0.033206366,0.018167881,0.001564698,0.015733907,0.023644323,0.03007697,0.023905106,0.02373125,0.026426008,0.024339745,0.010083608,0.004954876,0.02303583,0.026078297,0.022166554,0.023644323,0.018080954,0.029903114,0.018776374,0.020080289,0.019993361,0.011822161,0.008953549,0.023122758,0.038682807,0.043289974,0.01851559,-0.017994026,-0.0163424,0.075279355,0.100401446,-0.028425345,-0.019906433,0.006867285,0.019384868,0.030250825,0.043029193,0.05493828,0.026599864,-0.008779693,-0.012343728,0.01782017,0.030250825,0.026860647,0.03181552,0.02677372,0.03164167,0.026599864,-0.017298603,0.00260783,0.046506297,0.020080289,0.019993361,0.011822161,0.008953549,0.023122758,0.038682807,0.043289974,0.01851559,-0.017994026,-0.0163424,0.075279355,0.100401446,-0.028425345,-0.019906433,0.006867285,0.019384868,0.030250825,0.043029193,0.05493828,0.026599864,-0.008779693,-0.012343728,0.01782017,0.030250825,0.026860647,0.03181552,0.02677372,0.03164167,0.026599864,-0.017298603,0.00260783,0.046506297,0.015038485,0.023818178,0.024948237,0.017559387,0.01521234,0.024339745,0.021731915,0.015473124,0.022861974,0.019384868,0.013560715,0.01895023,0.008692766,0.034684137,0.046245515,0.013560715,0.008431983,-0.031380884,0.09153482,0.057719965,-0.052504305,0.00295554,0.02633908,0.034944918,0.038335096,0.03233709,0.018776374,-0.001043132,-0.004781021,0.013299932,0.041464493,0.02599137,0.015038485,0.023818178,0.024948237,0.017559387,0.01521234,0.024339745,0.021731915,0.015473124,0.022861974,0.019384868,0.013560715,0.01895023,0.008692766,0.034684137,0.046245515,0.013560715,0.008431983,-0.031380884,0.09153482,0.057719965,-0.052504305,0.00295554,0.02633908,0.034944918,0.038335096,0.03233709,0.018776374,-0.001043132,-0.004781021,0.013299932,0.041464493,0.02599137,0.022948902,0.015560051,0.02373125,0.013995353,0.020601856,0.01521234,0.018080954,0.036161907,0.012343728,0.013821498,0.015560051,0.02486131,0.031728595,0.008431983,0.01486463,0.020688783,0.02746914,0.03703118,0.003129396,0.014690775,0.021384204,0.003650962,0.012778366,0.006606502,0.09405573,0.055459846,-0.064326465,-0.006867285,0.02416589,0.039552085,0.036335763,0.029294621,0.010865958,0.000956204,0.018602518,0.022166554,0.016516255,0.015994688,0.031380884,0.040682144,0.0081712,-0.008084272,0.013908425,0.015125413,0.034771062,0.024078961,0.020775711,0.019819506,0.017733242,0.0342495,0.01564698,0.009822826,-0.008518911,0.012343728,0.040682144,0.017211676,0.03824817,0.038943592,0.011300596,0.013647643,-0.000521566,-0.01825481,0.012865294,0.018167881,0.010865958,0.000956204,0.018602518,0.022166554,0.016516255,0.015994688,0.031380884,0.040682144,0.0081712,-0.008084272,0.013908425,0.015125413,0.034771062,0.024078961,0.020775711,0.019819506,0.017733242,0.0342495,0.01564698,0.009822826,-0.008518911,0.012343728,0.040682144,0.017211676,0.03824817,0.038943592,0.011300596,0.013647643,-0.000521566,-0.01825481,0.012865294,0.018167881,0.09918446,0.04572395,-0.04233377,-0.003390179,0.0122568,0.022948902,0.013473787,0.030598536,0.034944918,0.020688783,0.022861974,0.007301923,0.010257464,0.018428663,0.005911081,0.034597207,0.029903114,0.020688783,0.016429327,0.011822161,0.00964897,0.015820835,0.011909089,0.023992034,0.02599137,0.02677372,0.02190577,0.0040856,0.0163424,0.013299932,0.0122568,-0.001564698,0.09918446,0.04572395,-0.04233377,-0.003390179,0.0122568,0.022948902,0.013473787,0.030598536,0.034944918,0.020688783,0.022861974,0.007301923,0.010257464,0.018428663,0.005911081,0.034597207,0.029903114,0.020688783,0.016429327,0.011822161,0.00964897,0.015820835,0.011909089,0.023992034,0.02599137,0.02677372,0.02190577,0.0040856,0.0163424,0.013299932,0.0122568,-0.001564698,0.040160578,0.035466485,0.0342495,0.023557395,-0.002694757,-0.011735234,0.005302587,0.001999336,0.05085268,0.11822162,-0.046854008,-0.01564698,0.010518246,0.005824153,0.02825149,0.029033838,0.035727266,0.023644323,0.010865958,0.007475779,0.006171864,0.012343728,0.020254144,0.02190577,0.03129396,0.01712475,0.019558724,0.013560715,0.009127405,0.023992034,0.014169209,0.014951557,0.019037157,0.028512273,0.017298603,0.01895023,0.01043132,0.009040477,0.02155806,0.012865294,0.016516255,0.018776374,0.027295286,0.029294621,0.031380884,0.000260783,0.000956204,0.014777702,0.006432647,0.008692766,0.07953881,0.041377567,-0.02677372,0.019558724,0.006258791,0.02373125,0.02303583,0.020514928,0.007041141,0.014951557,0.035727266,0.022601191,0.015038485,0.008084272,0.019037157,0.028512273,0.017298603,0.01895023,0.01043132,0.009040477,0.02155806,0.012865294,0.016516255,0.018776374,0.027295286,0.029294621,0.031380884,0.000260783,0.000956204,0.014777702,0.006432647,0.008692766,0.07953881,0.041377567,-0.02677372,0.019558724,0.006258791,0.02373125,0.02303583,0.020514928,0.007041141,0.014951557,0.035727266,0.022601191,0.015038485,0.008084272,0.004259456,0.016603183,0.031033175,0.031380884,0.017646315,-0.003477106,0.01373457,0.02112342,0.02972926,0.02520902,0.016168544,0.015125413,0.007910417,0.009388187,0.008084272,0.028859982,0.02225348,0.02677372,0.010257464,0.031380884,0.009996681,0.001738553,0.008953549,-0.002173191,0.013647643,0.09866289,0.047723286,-0.06528267,-0.01077903,0.025122093,0.031380884,0.023296613,0.023992034,0.016603183,0.023992034,0.024948237,-0.012952222,-0.028512273,0.038074315,0.053286657,0.01895023,0.024948237,0.009214331,0.013126076,-0.001825481,-0.005911081,0.022079626,0.027382212,0.038769737,0.007736562,0.007649634,0.017907098,0.015733907,0.022514263,0.002086264,-0.001043132,0.013560715,0.029642332,0.032597873,0.028077634,0.006084936,8.69E-05,0.020688783,0.007910417,0.023992034,0.016603183,0.023992034,0.024948237,-0.012952222,-0.028512273,0.038074315,0.053286657,0.01895023,0.024948237,0.009214331,0.013126076,-0.001825481,-0.005911081,0.022079626,0.027382212,0.038769737,0.007736562,0.007649634,0.017907098,0.015733907,0.022514263,0.002086264,-0.001043132,0.013560715,0.029642332,0.032597873,0.028077634,0.006084936,8.69E-05,0.020688783,0.007910417,0.004346383,-0.003824817,0.05754611,0.08023423,-0.041899133,-0.021384204,0.03155474,0.020949567,0.020254144,0.008345055,0.018428663,0.00521566,0.021471132,0.047027864,0.001912409,-0.006432647,-0.018776374,0.02112342,0.054764424,0.03164167,0.001043132,-0.001912409,0.018341737,0.012082945,0.011909089,0.014516919,0.014516919,0.024948237,0.014603847,0.006780358,0.014256137,0.024948237,0.004346383,-0.003824817,0.05754611,0.08023423,-0.041899133,-0.021384204,0.03155474,0.020949567,0.020254144,0.008345055,0.018428663,0.00521566,0.021471132,0.047027864,0.001912409,-0.006432647,-0.018776374,0.02112342,0.054764424,0.03164167,0.001043132,-0.001912409,0.018341737,0.012082945,0.011909089,0.014516919,0.014516919,0.024948237,0.014603847,0.006780358,0.014256137,0.024948237,0.015820835,0.007562706,-0.003824817,0.003564034,0.025382876,0.023557395,0.021384204,0.017559387,0.02190577,0.013647643,-0.012517583,0.006780358,-0.022775047,0.04450696,0.0867538,-0.01825481,0.00113006,0.010170536,0.005476443,0.015733907,0.008779693,0.009909753,0.016429327,0.04050829,0.004346383,-0.006606502,0.01564698,0.017994026,0.020254144,0.011822161,-0.010170536,0.016777039,0.020254144,0.02599137,0.038074315,0.008779693,-0.01043132,-0.0040856,0.00669343,0.02225348,0.020341072,0.029816188,0.020862639,0.011909089,0,-0.002781685,-0.004433311,0.007736562,0.022688119,0.01825481,0.029381549,0.028338417,0.017994026,-0.006258791,-0.004346383,-0.011213668,0.006519574,-0.000434638,0.073280014,0.07093297,-0.04641937,-0.002347047,0.005824153,0.016603183,0.020254144,0.02599137,0.038074315,0.008779693,-0.01043132,-0.0040856,0.00669343,0.02225348,0.020341072,0.029816188,0.020862639,0.011909089,0,-0.002781685,-0.004433311,0.007736562,0.022688119,0.01825481,0.029381549,0.028338417,0.017994026,-0.006258791,-0.004346383,-0.011213668,0.006519574,-0.000434638,0.073280014,0.07093297,-0.04641937,-0.002347047,0.005824153,0.016603183,0.00521566,0.014690775,0.023818178,0.025382876,0.006432647,-0.004433311,0.007736562,0.018167881,0.004520238,0.011561379,0.02633908,0.005998008,0.021036493,0.006258791,0.002520902,0.004346383,0.00669343,0.027903778,0.024078961,0.009562043,0.009127405,0.012082945,0.005389515,-0.000434638,0.009475115,0.030946247,-0.001912409,0.000608494,0.012169872,0.02781685,0.03824817,-0.002868613,0.00521566,0.014690775,0.023818178,0.025382876,0.006432647,-0.004433311,0.007736562,0.018167881,0.004520238,0.011561379,0.02633908,0.005998008,0.021036493,0.006258791,0.002520902,0.004346383,0.00669343,0.027903778,0.024078961,0.009562043,0.009127405,0.012082945,0.005389515,-0.000434638,0.009475115,0.030946247,-0.001912409,0.000608494,0.012169872,0.02781685,0.03824817,-0.002868613,0.009996681,-0.008605838,-0.01077903,-0.023992034,0.058067676,0.0996191,-0.038682807,-0.000695421,-0.012865294,0.001912409
-0.003425211,-0.003968367,-0.003569313,-0.004644541,0.004954916,-0.004882865,-0.006041229,0.001213788,-0.002150456,-0.002992902,-0.001840081,-0.001889963,-0.002699155,-0.001413315,-0.005093477,-0.002959648,0.001014261,0,-0.000260493,-0.001513079,-0.004999256,-0.009976341,-0.000399054,0.00096438,0.003813179,0.000399054,-0.004677796,-0.004772017,-0.001878878,-0.000509902,-0.002483001,-0.002300101,-0.003353159,-0.003003987,0.000775938,0.000498817,-0.000543156,-0.004018249,-0.004494896,0.005741939,-0.010109359,-0.007105372,0.000243866,0.000609665,0.002283474,0.003868604,-0.00411247,-0.005719769,-0.003458465,-0.008701587,-0.003347617,0.000997634,0.005453733,0.002787833,0.002372152,-0.002289016,-0.012930447,-0.01194944,-0.000665089,0.005126731,0.003480635,0.004057046,0.003186887,-0.002266847,-0.007709495,-0.007476714,-0.008873402,-0.003547144,0.005459276,0.003890773,0.007038863,-0.000681717,-0.005708684,-0.010580464,-0.007022236,-0.00048219,0.002117202,0.004794186,0.000227239,-0.00519324,-0.002821088,-0.004262115,-0.001468739,0.005237579,0.001396688,-0.001468739,-0.00438959,-0.004494896,-0.001773572,-0.004145724,-0.004461642,0.003802095,0.000870159,0.00505468,0.005470361,-0.006867048,-0.015535381,-0.008856774,0.002072862,0.002438661,0.003441838,0.002233592,-0.000703886,8.87E-05,0.000415681,-0.004910577,-0.005620006,-0.007354781,-0.002821088,0.000836904,0.008285906,0.007094287,-0.00487178,-0.003962825,-0.004478269,-0.004400675,-0.002970733,-0.000399054,0.003092666,0.000399054,-0.002150456,0.000520987,-0.002111659,-0.003896316,0.000393511,0.000532072,-0.002887597,-0.001646096,-0.001485366,-0.000925583,0.000399054,-7.21E-05,-9.42E-05,-0.002699155,-0.002737952,-0.001646096,-7.76E-05,-0.000338087,-0.000188442,-0.001795742,-0.00016073,-0.00048219,-0.001485366,-0.002732409,-0.000931125,-0.001008719,0.000969922,0.0001829,-0.00238878,0.000703886,-0.001075228,-0.001574045,-0.003092666,-2.77E-05,0.000870159,0.000587496,-0.001967556,-0.002992902,-0.002399864,-0.001934302,0.003724501,0.001363433,-0.000249409,-0.003414126,-0.004311997,-0.0016073,-0.000266036,0.001945387,-0.000387969,0.001352349,0.000654005,-0.001806826,-0.004062588,-0.001878878,-9.98E-05,0.000953295,-0.000282663,-0.000127475,0.000947752,-0.001235958,-0.003685704,-0.001834538,-0.000892328,0.000354714,0.005919296,-0.0056976,-0.003718959,-0.001524163,-0.001862251,0.0014244,0.002782291,-0.00016073,-0.001036431,-0.002627103,-0.002416492,-0.000155188,-1.11E-05,0.001075228,-0.000254951,-6.65E-05,-0.002737952,-0.001496451,0.00064292,0.001989726,-7.76E-05,4.43E-05,-0.002427577,-0.004184521,5.54E-06,0.001501994,0.002460831,0.000520987,-0.003059411,-0.002061777,-0.000809192,0.001163907,0.002155998,-0.00029929,-0.006750658,-0.007027778,0.011062655,0.002538425,-0.003242311,-0.002106117,-0.002887597,-0.002920851,-0.002610476,0.001468739,0.006567759,0.007105372,-0.004361878,-0.012814057,-0.001801284,0.002765664,0.004311997,0.002183711,-0.000443393,-0.001956472,-0.011217842,-0.007266102,0.004372963,0.014521119,0.013883743,-0.005969178,-0.018932879,-0.005060222,0.002627103,-0.005232037,-0.011849677,0.000836904,0.031940922,0.028737407,-0.007637444,-0.024680361,-0.030843522,-0.027418312,0.001640554,0.013368298,0.023571879,0.01633903,0.018090433,0.031015338,-0.023682727,-0.06411462,-0.047731254,-0.006562216,0.037511043,0.036579918,-0.025323281,0.038929902,0.07305453,0.003297735,-0.07673469,-0.09134449,-0.016411083,0.027590128,0.06341628,0.059503336,0.012492597,-0.025395332,-0.02929719,-0.02031294,-0.01211017,-0.002704697,0.004694423,0.003890773,0.019060355,0.009111726,0.000587496,-0.004095843,-0.011439539,-0.004844068,-0.002117202,-0.005847245,-0.001901047,0.003563771,0.003940655,0.000387969,-0.00473322,0.006163162,0.008008786,0.00048219,-0.007604189,-0.009649339,-0.001363433,0.002305643,0.000338087,0.000520987,-0.000831362,-0.00365245,0.002239134,0.005958093,0.009887663,0.000775938,-0.012941532,-0.017314496,-0.008296991,0.001141737,0.006850421,0.015662856,0.01806272,0.003530517,-0.01167232,-0.026919495,-0.024813378,0.004317539,0.014643053,0.015856842,0.012015949,-0.000437851,-0.010253462,-0.01532477,-0.011722202,-0.007642986,0.005137816,0.015856842,0.009427642,-0.000581953,-0.00455032,-0.010680229,-0.005547954,0.001030889,-0.000742683,0.004505981,0.00238878,0.000709429,-0.000992092,-0.000254951,-0.008391212,-0.007182966,-0.003979452,0.002560594,0.016034199,0.000249409,-0.004794186,-0.011783168,-0.011151333,-0.005553497,0.004311997,0.009826697,0.009610542,0.000554241,-0.00914498,-0.009344507,-0.002588306,-0.00204515,-0.003225684,0,0.009438728,0.010103817,-0.009610542,-0.014831495,0.000897871,0.001147279,-0.002543967,0.002189253,2.22E-05,-0.001740317,0.006667522,0.012304155,-0.008169515,-0.016876645,-0.01976424,-0.004760932,0.014099896,0.020562349,0.019088067,0.009532949,-0.008280364,-0.018323215,-0.033587016,-0.034196682,-0.018489487,0.032944098,0.07443459,0.035510235,-0.030267112,-0.064574644,-0.038885564,-0.011677862,0.011938356,0.022452312,0.03037796,0.016327946,-0.002948563,-0.011594726,-0.018400809,-0.013573367,-0.006224129,0.006329435,0.006739573,-0.002726867,0.007676241,0.007232848,0.002355525,-0.002305643,-0.007897937,-0.007925649,-0.003569313,-0.001324637,-0.000315917,0.001828996,0.004760932,0.007670698,0.00050436,-0.00650125,-0.011877389,-0.009616085,0.000687259,0.012686581,0.006190874,0.001041974,-0.00723839,-0.015058734,-0.005359512,0.002072862,0.004478269,0.00452815,0.003674619,0.001091855,-0.005182155,-0.004195606,-0.006401486,-0.006551131,-0.004422845,0.005908211,0.008762553,0.000820277,0.000897871,-0.005991348,-0.005769651,-0.004578033,-0.001385603,-0.000981007,0.00443393,-0.00048219,-0.0030317,-0.002233592,-0.003779925,0.002244677,0.005714227,-0.000193984,-0.004971544,-0.009654881,-0.01461534,0.001385603,0.016732542,0.006983439,-0.006706318,-0.009050759,-0.00629618,-0.000149645,0.000958837,-0.002599391,-0.001235958,0.001191619,0.000615208,-0.000360257,-0.001019804,-0.001441027,-0.004805271,0.001169449,0.004384048,-0.006944642,-0.002466373,0.002250219,-0.001069686,0.001684893,0.003137005,-0.002865427,-0.00312592,-0.002898681,-0.001895505,0.001252585,0.000687259,-0.002167083,0.001119567,0.000737141,0.000692802,-0.003968367,-0.005237579,-0.000847989,0.001330179,0.002471916,0.001064143,-0.002893139,-0.003391956,0.000498817,-0.000842447,-0.001690436,-0.002893139,0.000376884,0.0016073,0.000399054,0.00032146,-0.003175802,-0.00296519,-0.002920851,0.001069686,0.000371342,-0.000548699,0.003358702,-0.000338087,-0.002749036,-0.003813179,-0.004855153,0.004755389,0.002499628,-0.001845623,-0.001357891,-0.000969922,-0.004029334,-0.000731598,0.005775193,-0.000720514,-0.001036431,-0.001341264,-0.000709429,-0.002649273,-0.003597026,-0.001346806,0.002471916,0.003680162,0.000875701,-0.001718148,-0.002904224,-0.002954106,0.000770395,-0.002355525,-0.003391956,0.001657181,0.00425103,0.001269212,-0.001191619,0.001485366,-0.009377761,-0.000260493,0.003724501,-0.001025346,-0.000626293,0.002887597,-0.002106117,0.001889963,0.000992092,-0.006068941,-0.000581953,0.00034363,-0.003092666,0.001224873,0.001768029,0.00298736,0.005348428,-0.006024602,-0.007620817,-0.003840892,0.000753768,0.006894761,0.002361068,0.003120378,-0.000648462,-0.005780736,-0.005891584,-0.002726867,0.002798918,0.005736397,0.006578843,-0.003436296,-0.006329435,-0.004106927,-0.000836904,-0.002422034,0.002405407,0.008030955,0.002998445,-0.006224129,-0.007703953,-0.00092004,0.000193984,0.001978641,0.001308009,-0.002039608,0.000354714,0.003247853,0.000349172,-0.0014244,0.000753768,-0.002128286,-0.000371342,-0.003358702,-0.003242311,0.000764853,0.003242311,0.001163907,0.00487178,0.003220141,0.004428387,-0.003358702,-0.010125987,-0.028349437,-0.016937612,0.04810814,0.025966201,-0.010026223,-0.008812435,-0.009194861,-0.010741195,-0.003541601,0.006074484,0.007360323,0.005969178,-0.003236769,-0.002649273,-0.002410949,0.001507536,0.002433119,0.001840081,-0.003419668,-0.003874146,-0.00188442,-0.002095032,0.006074484,-0.001662724,-0.001041974,-0.000670632,0.004910577,0.007271645,-0.00046002,-0.007914565,-0.008091922,-0.014449068,0.006041229,0.022247242,0.002200338,-0.008784724,-0.008906656,0.007426832,-0.006091111,0.006279553,0.009460897,-0.014183032,-0.01932085,-0.000310375,0.007083203,0.020806216,0.00411247,-0.016050825,-0.000443393,0.006717403,-0.007327069,-0.020784045,0.004888407,0.0188442,0.01392254,-0.003818722,-0.00254951,-0.005143358,-0.009366676,0.013035753,0.003070496,-0.005797363,-0.006783912,0.005431564,0.00631835,-0.005620006,0.00206732,-0.000875701,-0.000216154,-7.21E-05,0.00108077,-0.000958837,-0.001673808,-0.000227239,0.001712605,0.007460087,-0.003863061,-0.005320716,0.001413315,0.002322271,0.002749036,0.001457654,-0.00064292,-0.002704697,-0.002460831,-0.000116391,0.005015883,0.002959648,0.000149645,0.002255762,-0.001862251,-0.003691247,0.00096438,0.000981007,0.0014244,0.002787833,0.001258128,0.002056235,-0.002970733,-0.003153632,0.002311186,0.001557418,0.001895505,0.001762487,0.001152822,-0.002106117,-5.54E-06,-0.001208246,0.001357891,0.000282663,0.004456099,0.003502804,-0.002399864,0.001856708,-0.002316728,-0.001357891,-0.002139371,0.004323082,0.004018249,0.002200338,-0.001064143,-0.00271024,-0.000631835,-0.002410949,0.003840892,0.002643731,0.002117202,0.001274755,-0.001784657,-0.001191619,0.001357891,0.002715782,0.000836904,-0.000981007,-0.001064143,-0.000243866,0.003990537,0.002543967,0.000958837,-0.001501994,-0.002011896,0.000171815,0.002410949,0.001657181,-8.31E-05,-0.000404596,0.003813179,0.003070496,-0.004201148,0.000393511,0.000714971,0.00158513,0.00296519,0.002283474,0.002726867,-0.001114025,-0.002438661,-0.006041229,-0.002915309,-0.000399054,0.007155254,0.004755389,0.006861506,0.002588306,0.001856708,-0.00317026,-0.007986615,-0.009061844,-0.007149712,-0.001014261,0.004600202,0.013545655,0.018439604,0.018101517,0.003137005,-0.001823454,-0.029452378,-0.025794385,-0.031952005,-0.00190659,0.003475092,0.054725777,0.043230813,0.07171881,-0.007598647,-0.005154443,-0.12958713,-0.110332794,-0.17735718,0.069246896,0.17735718,-0.124521375,-0.17735718,-0.16703722,-0.07652409,0.015019937,0.06509563,0.06903074,0.048113678,0.01734775,-0.026869614,-0.040043928,-0.04211679,-0.013030211,0.016350115,0.041218918,0.050962478,0.030738218,-0.012886108,-0.06454139,-0.077244595,-0.0832304,-0.005908211,0.08720985,0.17735718,0.12697111,-0.17735718,-0.17735718,0.018927338,0.059309352,0.103826,0.06254612,0.013434807,-0.019204458,-0.023566335,-0.0393345,-0.023056434,-0.015346939,0.007194051,0.014122066,0.021000199,0.008191685,0.014249542,-0.003530517,-0.001330179,-0.011461708,-0.016139504,-0.002560594,0.00473322,-0.008485433,-0.005004798,0.004888407,0.017181477,0.01587901,-0.00707766,-0.013634333,-0.00912281,-0.001795742,0.003585941,0.003391956,-0.003142548,-0.001119567,0.002510713,0.005148901,0.006129908,-0.000282663,-0.005586751,-0.006911388,-0.013002499,0.001679351,0.014781613,0.003003987,-0.000825819,-0.002937479,-0.002150456,-0.001058601,-0.005132274,-0.002959648,-0.000676174,0.000404596,0.004943831,0.004323082,0.002865427,-0.003502804,-0.004860696,-0.014050014,-0.000842447,0.01495897,0.00634052,-0.003048327,-0.007044406,-0.000471105,-0.000304833,0.000371342,0.001845623,0.002588306,-0.006002432,-0.00238878,0.000360257,0.000981007,-0.000221696,0.001136194,0.002338898,0.000327002,-0.001673808,-0.00489395,-0.012065831,-0.005991348,0.018362012,0.009693679,-0.003785468,-0.003885231,-0.008901114,-0.010353225,0.005553497,0.001601757,0.003663534,0.003159175,-0.003574856,-0.001790199,0.000881244,0.001795742,0.003297735,-0.002289016,-0.012631157,-0.012470427,0.008867859,0.017514022,0.008995335,-0.006490164,-0.00910064,-0.004899492,-0.000637377,-0.002095032,-0.003015072,-0.002577222,0.008817977,0.010602634,-0.004633457,-0.001368976,-0.003874146,-0.001956472,-0.006650894,-0.001485366,0.004594659,-0.000127475,-0.000615208,0.003530517,0.002726867,0.002510713,-0.009095098,-0.006307265,0.003342075,-0.003003987,0.004311997,0.00268807,0.001158364,0.002865427,0.00144657,-0.00503251,-0.002216965,5.54E-05,-0.001208246,-0.001197161,-0.002798918,-0.001828996,0.003757755,0.009848867,0.002266847,0.006667522,-0.001873335,-0.008291449,-0.017863194,-0.009821154,-0.004284285,0.012309697,0.010757822,0.023671642,0.010403108,0.013451434,-0.01668266,-0.01833984,-0.03999959,-0.02350537,-0.021310573,0.011046027,0.043164305,0.079328544,0.03912943,0.026786478,-0.054221418,-0.07415193,-0.17735718,-0.17735718,0.17735718,0.17735718,-0.093151316,-0.09557335,-0.14684066,-0.053661633,-0.024857718,0.050629932,0.04396241,0.06293963,0.013135517,0.006528962,-0.025722334,-0.019631224,-0.024475291,-0.008169515,-0.000665089,0.007504426,-0.000354714,-0.004993714
0.000318779,0.006586303,0.004927571,-0.002150409,-0.002971671,-0.002053154,-0.002896028,-0.003058119,-0.004333236,-0.003490363,0.002031542,0.000761828,-0.000351197,0.001750584,-0.002117991,-0.003814545,-0.003755111,-0.002906835,-0.000194509,-0.002150409,-0.002755549,0.001712763,0.000243137,0.000572722,0.001485835,-0.003139165,-0.009412092,-0.012027162,0.009271613,0.007418371,-0.001999124,-0.003960427,-0.003058119,-0.001685748,-0.000264749,-0.002107185,-0.003776724,-0.001556075,-0.001485835,-0.000745619,0.00238274,0.00060514,-0.002015333,-0.002814983,-0.005678593,-0.001810018,-0.000464661,0.001631717,-0.001550672,-0.002696116,-0.000637558,0.000243137,-0.00072941,-0.0021342,-0.001853242,-0.003517378,-0.002928447,-0.001837033,0.001847839,0.001907272,0.000199912,-0.001869451,-0.004176548,-0.004068488,0.000329585,-0.004025263,-0.000453855,0.00346875,-0.000891501,-0.00152906,-3.24E-05,-0.003263435,-0.002879819,-0.001275117,-0.004625001,-0.000621349,0.003771321,0.000886098,-0.000945532,-0.00457097,-0.005014019,5.94E-05,0.000832068,0.000486273,-0.00072941,-0.0021342,-0.001853242,-0.003517378,-0.002928447,-0.001837033,0.001847839,0.001907272,0.000199912,-0.001869451,-0.004176548,-0.004068488,0.000329585,-0.004025263,-0.000453855,0.00346875,-0.000891501,-0.00152906,-3.24E-05,-0.003263435,-0.002879819,-0.001275117,-0.004625001,-0.000621349,0.003771321,0.000886098,-0.000945532,-0.00457097,-0.005014019,5.94E-05,0.000832068,0.000486273,-0.003938815,-0.003576811,0.001026577,0.001912675,5.40E-05,-0.003944218,-0.002101782,-0.001426402,-0.001912675,-0.003900993,0.004462909,0.003139165,-0.004803301,-0.002517816,-0.001550672,-0.000669977,-0.002155812,-0.000464661,0.001339953,7.56E-05,-0.001772197,-0.002636683,-0.003009492,-0.000691589,0.002469188,-0.000443049,-0.000869889,-0.001091414,-0.002458382,-0.002199037,-0.000378213,0.000745619,-0.000286361,-0.003630841,0.000680783,0.001242699,-0.000513289,-0.00060514,-0.002966268,-0.003079732,-0.000707798,0.000988756,0.000751022,0.000378213,-0.002236858,-0.00103198,-0.002523219,0.000713201,-0.000767231,-0.001318341,-0.000815859,-0.001237296,-0.000189106,0.000232331,0.000972547,-0.003031104,-0.003738902,-0.00323642,0.006116239,0.000756425,-0.003447138,-0.002242261,-0.001420999,-0.001215684,-0.000286361,-0.003630841,0.000680783,0.001242699,-0.000513289,-0.00060514,-0.002966268,-0.003079732,-0.000707798,0.000988756,0.000751022,0.000378213,-0.002236858,-0.00103198,-0.002523219,0.000713201,-0.000767231,-0.001318341,-0.000815859,-0.001237296,-0.000189106,0.000232331,0.000972547,-0.003031104,-0.003738902,-0.00323642,0.006116239,0.000756425,-0.003447138,-0.002242261,-0.001420999,-0.001215684,-0.000983353,0.0023125,-0.001113026,-0.000437646,-0.000518692,-0.000956338,-0.00042684,-0.001118429,-0.002209842,-0.001777599,-0.000691589,-0.001864048,0.004181951,0.002998686,-0.002928447,-0.002301694,-0.003312062,-0.0042684,0.00110222,0.002609667,0.001037383,0.000253943,-0.000199912,-0.002642086,-0.001826227,-0.001545269,0.001053592,-0.001264311,-0.001718166,-0.000259346,0.002760952,0.000918516,-0.000983353,0.0023125,-0.001113026,-0.000437646,-0.000518692,-0.000956338,-0.00042684,-0.001118429,-0.002209842,-0.001777599,-0.000691589,-0.001864048,0.004181951,0.002998686,-0.002928447,-0.002301694,-0.003312062,-0.0042684,0.00110222,0.002609667,0.001037383,0.000253943,-0.000199912,-0.002642086,-0.001826227,-0.001545269,0.001053592,-0.001264311,-0.001718166,-0.000259346,0.002760952,0.000918516,-0.003220211,-0.001593896,-0.002636683,-0.001318341,0.002020736,0.001134638,-0.000470064,-0.001939691,-0.002712325,-0.002463785,0.004851928,0.000113464,-0.003944218,9.19E-05,-0.000432243,-0.002036945,-0.001129235,0.0019559,0.000875292,0.001021174,-0.001469626,-0.004765479,0.000869889,0.001221087,-0.000680783,0.000334988,-0.001453417,-0.00097795,0.000724007,0.000167494,-0.001221087,-0.001810018,-0.003220211,-0.001593896,-0.002636683,-0.001318341,0.002020736,0.001134638,-0.000470064,-0.001939691,-0.002712325,-0.002463785,0.004851928,0.000113464,-0.003944218,9.19E-05,-0.000432243,-0.002036945,-0.001129235,0.0019559,0.000875292,0.001021174,-0.001469626,-0.004765479,0.000869889,0.001221087,-0.000680783,0.000334988,-0.001453417,-0.00097795,0.000724007,0.000167494,-0.001221087,-0.001810018,-0.000886098,9.73E-05,0.00067538,-0.000491676,-0.000610543,0.000129673,-0.001880257,-0.001853242,0.001410193,0.000518692,6.48E-05,-0.001145444,-0.001442611,-0.000778038,-0.00048087,0.000167494,0.000270152,-0.00042684,-0.000626752,0.001053592,-0.000983353,-0.001837033,-4.86E-05,-0.001042786,-0.000886098,-0.000929323,0.002420561,0.003679469,-0.003528184,-0.002701519,-0.000502483,-0.000524095,-2.70E-05,0.000718604,0.001275117,-0.000270152,-0.002269276,-0.001647927,0.000967144,0.00048087,0.000778038,-0.0001783,-0.002804177,-0.003252629,0.003285047,0.002733937,-0.000416034,-0.002447576,-0.00188566,-0.001815421,0.001793809,0.001177862,0.001561478,-0.000880695,-0.003279644,-8.64E-05,-0.000167494,0.000340391,-3.78E-05,0.000691589,-0.000221525,-0.001680345,0.00152906,-0.000664574,-2.70E-05,0.000718604,0.001275117,-0.000270152,-0.002269276,-0.001647927,0.000967144,0.00048087,0.000778038,-0.0001783,-0.002804177,-0.003252629,0.003285047,0.002733937,-0.000416034,-0.002447576,-0.00188566,-0.001815421,0.001793809,0.001177862,0.001561478,-0.000880695,-0.003279644,-8.64E-05,-0.000167494,0.000340391,-3.78E-05,0.000691589,-0.000221525,-0.001680345,0.00152906,-0.000664574,-0.001869451,-0.000642962,0.000702395,0.000610543,-0.000367407,0.000680783,-0.001042786,9.73E-05,-0.001296729,-0.000243137,0.000189106,-0.000967144,0.001064398,-0.001075205,-0.000788844,0.001518254,-0.000832068,0.000475467,-0.001810018,-0.002112588,0.001140041,0.003225614,0.00012427,-0.000226928,-0.004111712,-0.005597547,0.002771759,0.003106747,0.001307535,0.004830316,0.000291764,-0.007602074,-0.001869451,-0.000642962,0.000702395,0.000610543,-0.000367407,0.000680783,-0.001042786,9.73E-05,-0.001296729,-0.000243137,0.000189106,-0.000967144,0.001064398,-0.001075205,-0.000788844,0.001518254,-0.000832068,0.000475467,-0.001810018,-0.002112588,0.001140041,0.003225614,0.00012427,-0.000226928,-0.004111712,-0.005597547,0.002771759,0.003106747,0.001307535,0.004830316,0.000291764,-0.007602074,-0.005154498,-0.001755987,0.007715538,0.002085573,-0.005716414,0.00030257,0.005111274,0.001167056,-0.002517816,-0.005440859,-0.002820386,0.002517816,0.002593458,-0.001026577,0.005262559,-7.56E-05,-0.003987442,0.001523657,-0.003922605,-0.001383178,-0.000491676,0.003014895,0.002301694,-0.001977512,0.000913113,0.001485835,-0.001923482,-0.002107185,-0.000642962,-0.00049708,9.73E-05,0.002885222,0.001140041,-0.001691151,-0.000691589,-0.001069802,-0.000567319,7.02E-05,-0.001118429,0.002577249,0.001231893,0.000334988,0.000151285,-0.001826227,-0.002096379,-0.000896904,0.001815421,0.002847401,0.00135076,-0.000545707,-0.002766355,-0.00188566,0.000534901,-0.001539866,0.003090538,0.004689837,-0.002944656,-0.003139165,-0.000443049,1.08E-05,-0.000167494,0.001631717,0.002047751,-0.000999562,0.001140041,-0.001691151,-0.000691589,-0.001069802,-0.000567319,7.02E-05,-0.001118429,0.002577249,0.001231893,0.000334988,0.000151285,-0.001826227,-0.002096379,-0.000896904,0.001815421,0.002847401,0.00135076,-0.000545707,-0.002766355,-0.00188566,0.000534901,-0.001539866,0.003090538,0.004689837,-0.002944656,-0.003139165,-0.000443049,1.08E-05,-0.000167494,0.001631717,0.002047751,-0.000999562,-0.002301694,-2.16E-05,-0.001464223,0.000934726,0.000540304,0.001712763,0.001442611,0.000216122,-0.001701957,-0.001912675,-0.002517816,-0.000772634,-0.000529498,0.001026577,0.006613318,0.00688347,0.001512851,-0.00542465,-0.011978535,-0.010514312,-0.000507886,0.001377775,0.016198307,0.020871935,0.00775336,-0.018316299,-0.027587911,-0.010103681,0.010454878,0.006364779,0.009606602,0.011281543,0.000367407,-0.005981163,-0.005181513,-0.004527746,-0.006380988,-0.001194071,0.002431367,0.011740802,0.004776286,-0.002906835,-0.003430929,-0.005505696,-0.005505696,0.001296729,0.005689399,0.001783003,0.000772634,-0.003306659,-0.002452979,-0.000696992,0.003706484,0.002820386,-0.001410193,-0.001361566,-0.000945532,-0.000389019,0.001248102,0.001329147,-0.00103198,-0.001237296,0.000216122,0.00200993,0.000367407,-0.005981163,-0.005181513,-0.004527746,-0.006380988,-0.001194071,0.002431367,0.011740802,0.004776286,-0.002906835,-0.003430929,-0.005505696,-0.005505696,0.001296729,0.005689399,0.001783003,0.000772634,-0.003306659,-0.002452979,-0.000696992,0.003706484,0.002820386,-0.001410193,-0.001361566,-0.000945532,-0.000389019,0.001248102,0.001329147,-0.00103198,-0.001237296,0.000216122,0.00200993,0.000102658,-0.002085573,0.002490801,0.002820386,-0.004425088,-0.003176986,0.001869451,0.001826227,0.000432243,0.001248102,0.000740216,-0.001415596,-6.48E-05,-0.00140479,-0.001448014,0.00128052,0.002571846,0.002323306,-0.000805053,-0.002701519,-0.000167494,8.10E-05,-0.001015771,-0.000869889,0.002901431,0.004181951,-0.000113464,-0.001572284,-0.001339953,0.001086011,-0.001599299,-0.003322868,0.000102658,-0.002085573,0.002490801,0.002820386,-0.004425088,-0.003176986,0.001869451,0.001826227,0.000432243,0.001248102,0.000740216,-0.001415596,-6.48E-05,-0.00140479,-0.001448014,0.00128052,0.002571846,0.002323306,-0.000805053,-0.002701519,-0.000167494,8.10E-05,-0.001015771,-0.000869889,0.002901431,0.004181951,-0.000113464,-0.001572284,-0.001339953,0.001086011,-0.001599299,-0.003322868,-0.002155812,0.000761828,0.005494889,0.008866386,0.000183703,-0.005294977,-0.009174358,-0.003625439,0.004814107,0.002155812,0.002998686,-0.001523657,-0.000886098,0.003295853,0.00864486,-0.000918516,-0.010265772,-0.003517378,-9.73E-05,0.003771321,0.004781689,0.003182389,0.002723131,-0.000761828,-0.002696116,-0.001745181,-0.002085573,-0.003328271,0.001269714,0.004111712,0.003420123,0.00225847,-0.000988756,-0.000783441,-0.000470064,-0.00042684,0.000637558,-0.003306659,-0.004262997,0.002944656,0.006073015,0.003749708,0.000783441,-0.00554892,-0.005527308,0.002901431,-0.000464661,-0.000232331,0.003852366,0.000399825,-0.001642524,0.001366969,0.002247664,-0.002777162,-0.000545707,-0.000340391,-0.002982477,0.00268531,0.002744743,0.000621349,-0.001523657,-0.00200993,0.001837033,0.001021174,-0.000988756,-0.000783441,-0.000470064,-0.00042684,0.000637558,-0.003306659,-0.004262997,0.002944656,0.006073015,0.003749708,0.000783441,-0.00554892,-0.005527308,0.002901431,-0.000464661,-0.000232331,0.003852366,0.000399825,-0.001642524,0.001366969,0.002247664,-0.002777162,-0.000545707,-0.000340391,-0.002982477,0.00268531,0.002744743,0.000621349,-0.001523657,-0.00200993,0.001837033,0.001021174,0.001739778,-0.001242699,-0.00218823,-0.000172897,-0.000410631,0.002588055,0.001248102,0.000832068,0.00085368,-0.000162091,-0.001680345,-0.003085135,0.001772197,0.002977074,0.000864486,0.001129235,-0.001896466,-0.002512413,0.005365217,-0.001215684,-0.001820824,0.001588493,0.000113464,0.000253943,-0.000918516,-0.001096817,0.001318341,0.002031542,0.001469626,0.001091414,-0.000313376,-0.000389019,0.001739778,-0.001242699,-0.00218823,-0.000172897,-0.000410631,0.002588055,0.001248102,0.000832068,0.00085368,-0.000162091,-0.001680345,-0.003085135,0.001772197,0.002977074,0.000864486,0.001129235,-0.001896466,-0.002512413,0.005365217,-0.001215684,-0.001820824,0.001588493,0.000113464,0.000253943,-0.000918516,-0.001096817,0.001318341,0.002031542,0.001469626,0.001091414,-0.000313376,-0.000389019,-0.002247664,-6.48E-05,0.000329585,-0.001215684,0.003122956,0.003679469,0.002204439,-0.001129235,-0.004230579,-0.00323642,0.00286361,0.002966268,-0.000988756,0.000394422,-0.000243137,0.001096817,0.003452541,0.000734813,-0.003160777,-0.004668225,-0.001728972,-0.003328271,0.012783588,0.008196409,-0.006267524,-0.005397635,-0.001523657,-0.000129673,-0.000626752,0.002923043,0.000880695,0.001064398,-0.002247664,-6.48E-05,0.000329585,-0.001215684,0.003122956,0.003679469,0.002204439,-0.001129235,-0.004230579,-0.00323642,0.00286361,0.002966268,-0.000988756,0.000394422,-0.000243137,0.001096817,0.003452541,0.000734813,-0.003160777,-0.004668225,-0.001728972,-0.003328271,0.012783588,0.008196409,-0.006267524,-0.005397635,-0.001523657,-0.000129673,-0.000626752,0.002923043,0.000880695,0.001064398,0.002869013,0.002458382,0.001312938,-0.005273365,-0.006294539,-0.004360252,0.00261507,0.008326082,0.006872664,0.004084697,-0.007461595,-0.006964516,-0.00298788,-0.001080608,0.003393108,0.006489049,0.00464121,-0.000994159,-0.003198599,-0.003576811,0.002117991,0.001464223,-0.001004965,-0.001426402,0.001820824,0.002328709,2.70E-05,-0.000983353,0.003641648,0.00135076,-0.006948307,-0.00110222,0.001620911,0.005273365,0.003403914,0.00451694,0.000794247,0.001680345,-0.008180199,-0.00537062,-0.008909609,-9.73E-05
0.016870163,0.02470898,0.02002111,-0.000858415,-0.04271513,-0.02421552,0.011442103,0.025151039,0.018021569,0.0004986,-0.018987928,-0.015723897,-0.003557024,0.006543485,0.013477625,0.010650511,-0.001007481,-0.00965331,-0.010686493,-0.007936481,-0.001572904,0.000334114,0.007494423,0.007350497,0.002400477,0.001685988,0.00691358,-0.003176649,-0.024369726,-0.009535085,0.006548625,0.014896323,0.009221533,-0.000524301,-0.001850475,-0.003387397,0.000699068,0.003438799,-0.00616311,-0.012074349,-0.004400018,0.000724769,0.0133337,0.015307539,3.60E-05,-0.003880857,-0.009565927,-0.008563587,-0.00246216,-0.000328973,0.002703749,0.004256092,-0.001572904,0.000334114,0.007494423,0.007350497,0.002400477,0.001685988,0.00691358,-0.003176649,-0.024369726,-0.009535085,0.006548625,0.014896323,0.009221533,-0.000524301,-0.001850475,-0.003387397,0.000699068,0.003438799,-0.00616311,-0.012074349,-0.004400018,0.000724769,0.0133337,0.015307539,3.60E-05,-0.003880857,-0.009565927,-0.008563587,-0.00246216,-0.000328973,0.002703749,0.004256092,0.007114048,0.002138327,-0.002436459,-0.005541144,-0.008481343,-0.002349075,0.003896278,0.003515902,7.71E-05,-9.77E-05,0.001346735,-0.001033182,-0.000395796,-0.004292074,-0.003670109,0.001624306,0.003557024,0.002780853,-0.001907017,-0.003942539,-0.000133645,0.000375235,-0.001094864,0.00024673,0.002200009,-0.001156547,-0.001341594,0.000560283,-0.00098692,-0.002143467,0.002385057,0.001392996,-0.00075047,0.000339254,-0.002647207,-0.001048602,0.000514021,0.000308412,-0.000889256,0.003027583,0.00369581,-0.002575244,-0.003073844,-0.007278535,-0.001516361,0.002739731,0.010922942,0.009129009,-0.007993024,-0.00767433,-0.005972922,0.000431777,0.002667768,0.003022442,0.004107026,0.001819634,-0.000709349,-0.001202809,-0.005479462,-0.004143008,0.001043462,0.003233191,0.004641608,0.001608885,-0.00075047,0.000339254,-0.002647207,-0.001048602,0.000514021,0.000308412,-0.000889256,0.003027583,0.00369581,-0.002575244,-0.003073844,-0.007278535,-0.001516361,0.002739731,0.010922942,0.009129009,-0.007993024,-0.00767433,-0.005972922,0.000431777,0.002667768,0.003022442,0.004107026,0.001819634,-0.000709349,-0.001202809,-0.005479462,-0.004143008,0.001043462,0.003233191,0.004641608,0.001608885,-0.002102345,-0.002883657,-7.20E-05,-0.000519161,0.000328973,0.000447198,0.001655147,0.000714489,-0.001423838,-0.000159346,-0.000174767,-5.14E-05,-0.00024159,0.000308412,0.002498141,0.00072991,-0.001357015,-0.002405617,-0.00247244,-0.000863555,0.00616311,0.001583184,-0.002148607,0.001346735,-0.00271403,-0.00271403,-3.60E-05,0.002318234,0.003284593,0.000210749,-0.002313094,-0.001691129,0.00173225,0.002842535,-0.000683648,-0.003495341,-0.001089724,-0.000149066,0.00297104,0.001799073,-0.000421497,-1.54E-05,-0.000113085,-0.001115425,-0.00123365,-0.000514021,0.001464959,0.000339254,4.63E-05,0.001135986,0.002169168,0.000791592,-0.001423838,-0.003870577,-0.004266372,0.000133645,0.006137408,0.00421497,0.001146266,-0.002390197,-0.005839276,-0.002158888,0.000760751,0.006039744,0.00173225,0.002842535,-0.000683648,-0.003495341,-0.001089724,-0.000149066,0.00297104,0.001799073,-0.000421497,-1.54E-05,-0.000113085,-0.001115425,-0.00123365,-0.000514021,0.001464959,0.000339254,4.63E-05,0.001135986,0.002169168,0.000791592,-0.001423838,-0.003870577,-0.004266372,0.000133645,0.006137408,0.00421497,0.001146266,-0.002390197,-0.005839276,-0.002158888,0.000760751,0.006039744,0.001151407,-0.002595805,0.000611685,-0.001829914,0.00122337,0.000339254,0.001495801,0.00148552,-0.000395796,-0.001608885,-0.00197384,-0.002621506,-0.001428978,0.01112341,0.003413098,-0.005160769,-0.000704209,0.000128505,-0.001881316,7.71E-05,-0.001932718,-0.000534582,0.003726651,0.000642526,0.003161228,-0.000652806,-0.001279912,-0.003628987,0.000791592,0.001295332,0.001274772,-0.000560283,0.001151407,-0.002595805,0.000611685,-0.001829914,0.00122337,0.000339254,0.001495801,0.00148552,-0.000395796,-0.001608885,-0.00197384,-0.002621506,-0.001428978,0.01112341,0.003413098,-0.005160769,-0.000704209,0.000128505,-0.001881316,7.71E-05,-0.001932718,-0.000534582,0.003726651,0.000642526,0.003161228,-0.000652806,-0.001279912,-0.003628987,0.000791592,0.001295332,0.001274772,-0.000560283,0.000909817,-0.000380375,-0.001135986,-0.000966359,0.001321034,0.007843957,0.002071504,0.001022901,-0.0059318,-0.009206113,-0.009077608,-0.001012621,0.015492587,0.018237459,0.003120106,-0.012305658,-0.013133232,-0.008676671,-0.001711689,0.005654229,0.007797696,0.007139749,0.002703749,-0.002081784,-0.004759833,-0.002888797,-0.003628987,-0.00173225,0.002143467,0.003222911,0.00469815,0.001691129,0.000909817,-0.000380375,-0.001135986,-0.000966359,0.001321034,0.007843957,0.002071504,0.001022901,-0.0059318,-0.009206113,-0.009077608,-0.001012621,0.015492587,0.018237459,0.003120106,-0.012305658,-0.013133232,-0.008676671,-0.001711689,0.005654229,0.007797696,0.007139749,0.002703749,-0.002081784,-0.004759833,-0.002888797,-0.003628987,-0.00173225,0.002143467,0.003222911,0.00469815,0.001691129,-0.0004986,-0.001434118,-0.001809353,-2.57E-05,-0.001588324,-0.001069163,0.001290192,0.00221029,0.00222057,0.001500941,-0.00196356,-0.001387856,0.000431777,-0.000683648,0.000308412,-0.000673367,-0.000354674,0.001310753,0.00124393,0.002518702,0.00074019,-0.001166827,-0.003541603,-0.001958419,0.000848134,-0.000863555,0.005248152,0.004461701,-0.002374776,-0.002194869,-0.002323374,-0.000575703,0.001819634,0.001192528,0.000190188,-0.000195328,0.001495801,-0.000313553,0.000791592,9.77E-05,-0.000796732,-0.00098692,-0.00098178,0.001141126,0.00197898,0.002338795,-0.000107944,-0.001002341,-0.001572904,5.14E-05,0.001336454,0.001110285,0.000462619,0.000118225,-0.000817293,-0.000863555,0.000627105,0.001788792,0.001002341,0.000858415,-0.00196356,-0.002693469,0.003058424,0.001691129,0.001819634,0.001192528,0.000190188,-0.000195328,0.001495801,-0.000313553,0.000791592,9.77E-05,-0.000796732,-0.00098692,-0.00098178,0.001141126,0.00197898,0.002338795,-0.000107944,-0.001002341,-0.001572904,5.14E-05,0.001336454,0.001110285,0.000462619,0.000118225,-0.000817293,-0.000863555,0.000627105,0.001788792,0.001002341,0.000858415,-0.00196356,-0.002693469,0.003058424,0.001691129,0.000359815,-0.00048318,0.000107944,-0.00024159,-0.002020102,0.002050943,0.002112625,0.002534122,-0.000390656,-0.002909358,-0.001799073,-0.001156547,0.000709349,0.005356097,-0.000313553,-0.000894396,0.000801872,-0.000164487,-0.001254211,-0.002600945,0.003058424,0.001166827,0.001033182,0.000514021,-0.000801872,-0.000277571,0.000585984,0.001064023,-0.000143926,-0.000205608,0.00073505,0,0.000359815,-0.00048318,0.000107944,-0.00024159,-0.002020102,0.002050943,0.002112625,0.002534122,-0.000390656,-0.002909358,-0.001799073,-0.001156547,0.000709349,0.005356097,-0.000313553,-0.000894396,0.000801872,-0.000164487,-0.001254211,-0.002600945,0.003058424,0.001166827,0.001033182,0.000514021,-0.000801872,-0.000277571,0.000585984,0.001064023,-0.000143926,-0.000205608,0.00073505,0,0.00050374,0.001146266,0.000200468,-0.000118225,-0.00049346,0.000514021,0.000822433,0.000678507,0.000385516,-0.000128505,0.000313553,-0.000406076,0.000298132,0.001079444,0.000452338,0.000668227,0.000647666,-0.000323833,0.000514021,0.000195328,0.000555142,0.000113085,-0.000709349,0.000339254,0.001660287,0.000632246,0.000853275,-0.000406076,-0.00048832,1.54E-05,-9.77E-05,-0.000118225,0.002405617,0.004965441,-0.001845335,-0.004281793,-0.000226169,0.001804213,0.002770572,0.00370095,-0.00149066,-0.00247758,0.001058883,-0.000128505,0.000472899,0.000755611,0.000714489,0.000215889,0.001028042,0.000221029,0.001058883,-9.25E-05,-7.71E-05,-0.000591124,-0.000272431,0.002266832,0.002138327,0.000467759,-0.000215889,-0.001213089,0.000267291,0.000904677,0.002200009,0.001259351,0.002405617,0.004965441,-0.001845335,-0.004281793,-0.000226169,0.001804213,0.002770572,0.00370095,-0.00149066,-0.00247758,0.001058883,-0.000128505,0.000472899,0.000755611,0.000714489,0.000215889,0.001028042,0.000221029,0.001058883,-9.25E-05,-7.71E-05,-0.000591124,-0.000272431,0.002266832,0.002138327,0.000467759,-0.000215889,-0.001213089,0.000267291,0.000904677,0.002200009,0.001259351,-0.001855615,-0.000524301,0.000508881,0.002169168,0.002071504,-0.000889256,-0.000231309,-0.000123365,4.63E-05,0.001752811,0.000143926,0.000940658,0.001053743,-2.57E-05,0.000205608,0.001043462,-0.000544862,-0.000591124,0.000539722,0.002652347,-0.000308412,0.00048832,0.000621965,-0.00097664,0.000837854,-0.000529441,0.001274772,0.000940658,0.001670568,0.000894396,-0.000421497,-0.001428978,0.000570563,0.00099206,0.000724769,0.00247244,0.000945798,-0.000652806,-0.000724769,0.000277571,0.001300473,0.000375235,0.000123365,0.000334114,0.000889256,0.002266832,0.000940658,0.001156547,-0.00271403,-0.002349075,0.002313094,0.001603745,0.002364496,5.14E-06,-0.000282711,0.000842994,-0.000431777,0.000190188,0.000791592,0.001120565,-0.000524301,0.000411217,0.000668227,0.000174767,0.000570563,0.00099206,0.000724769,0.00247244,0.000945798,-0.000652806,-0.000724769,0.000277571,0.001300473,0.000375235,0.000123365,0.000334114,0.000889256,0.002266832,0.000940658,0.001156547,-0.00271403,-0.002349075,0.002313094,0.001603745,0.002364496,5.14E-06,-0.000282711,0.000842994,-0.000431777,0.000190188,0.000791592,0.001120565,-0.000524301,0.000411217,0.000668227,0.000174767,0.001994401,0.001213089,-0.000179907,-0.000169627,-0.000539722,0.000231309,-0.000878976,0.001105145,0.005643948,3.08E-05,-0.001012621,0.000514021,-0.000827574,-0.000714489,0.000945798,0.001896737,0.001685988,0.001542062,-0.000693928,-0.00075047,-0.000462619,0.001069163,0.00025187,0.001151407,0.001254211,-0.000714489,0.001367295,0.000935518,0.000328973,-0.00048832,0.000205608,0.000585984,0.001994401,0.001213089,-0.000179907,-0.000169627,-0.000539722,0.000231309,-0.000878976,0.001105145,0.005643948,3.08E-05,-0.001012621,0.000514021,-0.000827574,-0.000714489,0.000945798,0.001896737,0.001685988,0.001542062,-0.000693928,-0.00075047,-0.000462619,0.001069163,0.00025187,0.001151407,0.001254211,-0.000714489,0.001367295,0.000935518,0.000328973,-0.00048832,0.000205608,0.000585984,0.00072991,0.001146266,0.000647666,-6.68E-05,0.000606545,0.000673367,0.000416357,0.00122851,-0.000544862,0.000226169,0.000796732,0.00049346,0.000334114,0.001521502,0.000539722,0.000755611,1.54E-05,-0.000210749,0.000585984,0.000215889,0.000154206,0.001660287,0.000585984,0.001444398,0.001125706,0.000282711,-0.000678507,-0.002086924,-0.001161687,0.005900959,0.003752352,-0.003238331,-3.08E-05,0.000128505,0.001326174,0.000179907,0.000812153,0.000894396,0.001295332,-0.001043462,0.000328973,0.001192528,0.000668227,0.000853275,-0.000462619,0.000606545,0.001578044,0.00025701,-9.25E-05,0.001022901,-8.22E-05,0.001002341,0.001326174,0.00025187,-0.000606545,0.000827574,0.000611685,-0.000452338,0.001274772,0.001115425,-0.000113085,-0.000966359,0.001912157,0.001506081,-3.08E-05,0.000128505,0.001326174,0.000179907,0.000812153,0.000894396,0.001295332,-0.001043462,0.000328973,0.001192528,0.000668227,0.000853275,-0.000462619,0.000606545,0.001578044,0.00025701,-9.25E-05,0.001022901,-8.22E-05,0.001002341,0.001326174,0.00025187,-0.000606545,0.000827574,0.000611685,-0.000452338,0.001274772,0.001115425,-0.000113085,-0.000966359,0.001912157,0.001506081,0.002672908,0.002503281,0.004343476,0.000390656,-0.000380375,-0.005335536,-0.007232273,-0.006564046,-0.002338795,0.006980402,0.013549589,0.014659873,0.009422001,0.007052365,-0.022123456,-0.017394464,-0.03211088,-0.008923401,-0.007504704,0.032583777,0.027022073,0.0578222,0.012829959,0.014618752,-0.057503507,-0.050615627,-0.09559759,-0.044416536,-0.020679057,0.09850181,0.106114455,0.16448666,0.002672908,0.002503281,0.004343476,0.000390656,-0.000380375,-0.005335536,-0.007232273,-0.006564046,-0.002338795,0.006980402,0.013549589,0.014659873,0.009422001,0.007052365,-0.022123456,-0.017394464,-0.03211088,-0.008923401,-0.007504704,0.032583777,0.027022073,0.0578222,0.012829959,0.014618752,-0.057503507,-0.050615627,-0.09559759,-0.044416536,-0.020679057,0.09850181,0.106114455,0.16448666,0.10593969,0.008352838,-0.16448666,-0.16448666,-0.16448666,-0.16448666,0.16448666,0.16448666,-0.16448666,-0.16448666,-0.16448666,-0.068112895,-0.021835603,0.16448666,0.14862911,0.14970855,0.07027178,0.005823856,-0.16448666,-0.16448666,-0.07111478,0.05069273,0.06374372,0.09000504,0.04182073,0.010254715,0.003341135,-0.026790764,-0.045131028,-0.029566476,-0.016669694,-0.002940199,0.10593969,0.008352838,-0.16448666,-0.16448666,-0.16448666,-0.16448666,0.16448666,0.16448666,-0.16448666,-0.16448666
