0,1,2,3,4,5,6,7,8,9,10,11,12,13,14,15,16,17,18,19,20,21,22,23,24,25,26,27,28,29,30,31,32,33,34,35,36,37,38,39,40,41,42,43,44,45,46,47,48,49,50,51,52,53,54,55,56,57,58,59,60,61,62,63,64,65,66,67,68,69,70,71,72,73,74,75,76,77,78,79,80,81,82,83,84,85,86,87,88,89,90,91,92,93,94,95,96,97,98,99,100,101,102,103,104,105,106,107,108,109,110,111,112,113,114,115,116,117,118,119,120,121,122,123,124,125,126,127,128,129,130,131,132,133,134,135,136,137,138,139,140,141,142,143,144,145,146,147,148,149,150,151,152,153,154,155,156,157,158,159,160,161,162,163,164,165,166,167,168,169,170,171,172,173,174,175,176,177,178,179,180,181,182,183,184,185,186,187,188,189,190,191,192,193,194,195,196,197,198,199,200,201,202,203,204,205,206,207,208,209,210,211,212,213,214,215,216,217,218,219,220,221,222,223,224,225,226,227,228,229,230,231,232,233,234,235,236,237,238,239,240,241,242,243,244,245,246,247,248,249,250,251,252,253,254,255,256,257,258,259,260,261,262,263,264,265,266,267,268,269,270,271,272,273,274,275,276,277,278,279,280,281,282,283,284,285,286,287,288,289,290,291,292,293,294,295,296,297,298,299,300,301,302,303,304,305,306,307,308,309,310,311,312,313,314,315,316,317,318,319,320,321,322,323,324,325,326,327,328,329,330,331,332,333,334,335,336,337,338,339,340,341,342,343,344,345,346,347,348,349,350,351,352,353,354,355,356,357,358,359,360,361,362,363,364,365,366,367,368,369,370,371,372,373,374,375,376,377,378,379,380,381,382,383,384,385,386,387,388,389,390,391,392,393,394,395,396,397,398,399,400,401,402,403,404,405,406,407,408,409,410,411,412,413,414,415,416,417,418,419,420,421,422,423,424,425,426,427,428,429,430,431,432,433,434,435,436,437,438,439,440,441,442,443,444,445,446,447,448,449,450,451,452,453,454,455,456,457,458,459,460,461,462,463,464,465,466,467,468,469,470,471,472,473,474,475,476,477,478,479,480,481,482,483,484,485,486,487,488,489,490,491,492,493,494,495,496,497,498,499,500,501,502,503,504,505,506,507,508,509,510,511,512,513,514,515,516,517,518,519,520,521,522,523,524,525,526,527,528,529,530,531,532,533,534,535,536,537,538,539,540,541,542,543,544,545,546,547,548,549,550,551,552,553,554,555,556,557,558,559,560,561,562,563,564,565,566,567,568,569,570,571,572,573,574,575,576,577,578,579,580,581,582,583,584,585,586,587,588,589,590,591,592,593,594,595,596,597,598,599,600,601,602,603,604,605,606,607,608,609,610,611,612,613,614,615,616,617,618,619,620,621,622,623,624,625,626,627,628,629,630,631,632,633,634,635,636,637,638,639,640,641,642,643,644,645,646,647,648,649,650,651,652,653,654,655,656,657,658,659,660,661,662,663,664,665,666,667,668,669,670,671,672,673,674,675,676,677,678,679,680,681,682,683,684,685,686,687,688,689,690,691,692,693,694,695,696,697,698,699,700,701,702,703,704,705,706,707,708,709,710,711,712,713,714,715,716,717,718,719,720,721,722,723,724,725,726,727,728,729,730,731,732,733,734,735,736,737,738,739,740,741,742,743,744,745,746,747,748,749,750,751,752,753,754,755,756,757,758,759,760,761,762,763,764,765,766,767,768,769,770,771,772,773,774,775,776,777,778,779,780,781,782,783,784,785,786,787,788,789,790,791,792,793
-0.012218179,0.002491085,0.007591878,0.00498217,-0.0029655774,-0.004863547,0.007829124,-0.022538388,-0.025029473,-0.0021352158,0.024792228,0.005931155,0.002491085,-0.00996434,-0.023131505,-0.009845717,0.008540863,-0.0046263007,-0.000118623095,0.009133979,-0.013167163,-0.0023724618,0.002491085,-0.011031948,-0.0042704316,0.009489847,-0.011387818,0.0027283311,-0.010438832,-0.01803071,-0.010913325,0.020640418,0.03024889,-0.005100793,-0.018623827,-0.030842004,-0.012574048,-0.0054566623,0.012099556,0.088611454,-0.08078233,-0.04709337,0.03404483,-0.004033185,0.011625064,-0.012929917,0.00059311546,0.0068801395,-0.009845717,-0.0017793465,-0.0020165925,-0.0065242704,-0.0066428934,-0.0041518086,0.015421002,-0.014234772,-0.00094898476,0.008778109,-0.014827887,-0.011625064,0.005812532,-0.0020165925,-0.008184994,0.010082963,-0.003795939,-0.009133979,-0.0045076776,0.0043890546,-0.012218179,-0.0003558693,0.004863547,-0.018267957,-0.009015355,0.0021352158,0.0053380392,0.00842224,-0.0055752858,-0.003677316,0.0030842004,-0.029181281,-0.027639182,-0.01803071,0.09288188,0.035349682,-0.1139968,-0.023250127,0.034993812,-0.0043890546,0.015895495,0.003914562,-0.011743686,-0.0143533945,-0.012929917,-0.0008303617,0.005219416,0.0010676079,0.008896732,-0.017674841,-0.0028469544,0.0034400697,-0.0068801395,-0.011980933,0.0045076776,-0.006049778,-0.007591878,-0.0008303617,0.024199111,0.0,-0.019691434,-0.00842224,-0.02455498,0.007236009,0.0065242704,0.02147078,-0.036654536,-0.00047449238,0.007117386,-0.00806637,0.035468306,-0.028232297,-0.024436358,-0.012336802,-0.016607234,-0.026690196,0.04590714,0.124317005,-0.038078014,-0.13214613,-0.008896732,0.029062659,0.014709264,0.010320209,0.006168401,-0.015421002,-0.0043890546,-0.00842224,-0.002609708,-0.00059311546,-0.008184994,0.0047449237,0.0010676079,0.007829124,0.0018979695,-0.020047303,-0.022301143,-0.0046263007,-0.0023724618,0.008659486,0.027876427,0.016369987,-0.024673603,-0.040806346,-0.0016607234,-0.016725857,0.005693909,0.020165926,0.013523033,0.017674841,-0.019691434,0.016725857,-0.02953715,-0.025859835,-0.021352157,-0.032028235,0.013285787,0.025148096,0.10284623,0.03523106,-0.15041408,-0.06761517,0.02526672,0.009133979,0.026690196,-0.0053380392,0.026452951,0.0405691,-0.044602286,-0.0436533,0.00094898476,-0.020165926,0.004863547,0.0029655774,0.020640418,0.01992868,0.0041518086,-0.029655773,-0.02680882,-0.011980933,-0.01340441,0.034519322,0.0008303617,0.0020165925,-0.0043890546,-0.018861072,-0.0055752858,0.0,-0.019454189,0.0029655774,0.03143512,-0.030011643,0.013997525,0.014590641,-0.009727094,-0.027876427,-0.01874245,0.0046263007,-0.0027283311,-0.0042704316,0.09572884,-0.03795939,-0.11138709,0.029418528,0.013878902,-0.0034400697,0.011269194,0.010557456,-0.0054566623,-0.0106760785,-0.013878902,-0.0041518086,0.0,-0.00047449238,0.013641656,-0.021233534,-0.005219416,0.010913325,-0.0027283311,-0.0030842004,0.007710501,-0.008303617,-0.01909832,0.004033185,-0.008540863,0.002491085,0.023131505,0.0028469544,-0.019572811,-0.007710501,-0.008896732,-0.007354632,0.0030842004,0.014709264,-0.007591878,-0.006168401,0.017437596,0.005693909,-0.023131505,-0.030486137,-0.020759042,-0.0047449237,0.039382868,0.106642164,-0.036891785,-0.1422291,-0.0032028237,0.05978604,0.009133979,-0.01684448,-0.0055752858,0.009133979,0.022419766,-0.022182519,-0.03784077,-0.013167163,0.03712903,0.03297722,0.015539626,-0.01838658,-0.054566626,0.009845717,0.011743686,0.0017793465,-0.0055752858,0.044246417,-0.0032028237,-0.03060476,-0.0482796,-0.019572811,0.037010405,0.022063896,-0.020877665,-0.027164688,0.056108724,0.007236009,-0.054685246,0.0043890546,-0.020640418,0.01150644,0.02336875,-0.007829124,-0.0065242704,-0.047686484,-0.021945274,0.14649953,0.07508842,-0.13001092,-0.07390219,-0.017912088,0.012099556,0.03404483,0.03190961,0.052905902,0.007473255,-0.013285787,-0.0811382,-0.08291754,0.007591878,0.05634597,0.077460885,0.04021323,-0.044009168,-0.03795939,-0.019335564,-0.033807583,0.0046263007,0.017793464,0.015539626,0.0033214467,0.017437596,-0.0015421002,-0.01613274,-0.018861072,-0.013760279,-0.00059311546,0.0046263007,0.007591878,-0.00059311546,0.00047449238,0.0003558693,0.014234772,0.016251365,-0.025385343,-0.034519322,-0.015895495,-0.015183756,0.0041518086,0.06298886,0.11067535,-0.10177862,-0.095847465,0.04566989,-0.04282294,0.013167163,0.023843242,0.020521795,0.0065242704,-0.01150644,-0.013523033,-0.010913325,-0.017793464,-0.0030842004,0.007591878,0.013167163,0.026334327,-0.017912088,-0.0106760785,-0.012099556,-0.020640418,0.008896732,0.013997525,0.010201586,-0.0041518086,-0.013167163,-0.01874245,0.011743686,0.008778109,-0.008303617,0.0011862309,-0.009489847,-0.011269194,0.0014234772,0.039501492,-0.0022538388,-0.017081726,-0.024673603,-0.036891785,-0.00047449238,0.020521795,0.12763844,-0.007829124,-0.15278655,-0.003558693,-0.00059311546,0.00996434,0.039975982,0.020521795,0.008184994,-0.015539626,-0.03985736,-0.014234772,-0.020877665,0.009845717,0.047686484,0.022775635,-0.0027283311,-0.022419766,-0.03404483,-0.028588166,0.010082963,0.020996287,-0.0023724618,0.019335564,0.015895495,-0.022894258,0.0,-0.034163453,0.0029655774,0.015658248,-0.0066428934,0.006049778,0.0022538388,0.015776873,0.0015421002,-0.01874245,-0.007829124,-0.020759042,-0.014590641,-0.018623827,0.039738737,0.11494578,-0.061565388,-0.087662466,0.02562259,-0.013167163,0.020521795,0.018861072,-0.0054566623,0.0046263007,-0.00996434,-0.019216942,0.009608471,-0.015065134,0.0029655774,0.0042704316,-0.0054566623,0.020996287,0.010794702,-0.023843242,-0.034282073,-0.012336802,-0.003677316,0.013285787,0.028706789,0.025741212,-0.011387818,-0.04175533,-0.009133979,-0.0069987625,0.0033214467,0.0033214467,0.0032028237,-0.007947748,0.0065242704,0.009133979,0.03179099,0.013997525,-0.043060184,-0.044127792,-0.060379155,-0.022894258,0.08386653,0.17508769,-0.043060184,-0.12277491,-0.009845717,-0.048872717,-0.004033185,0.054448,0.043060184,0.02265701,-0.004033185,-0.029418528,-0.0055752858,-0.047211993,-0.011269194,0.010201586,0.033807583,0.030960629,-0.01648861,0.0003558693,-0.031672366,-0.0008303617,0.007829124,-0.010438832,0.0067615164,0.0042704316,-0.005812532,-0.0069987625,0.012455425,0.005219416,-0.0047449237,0.008778109,-0.017674841,-0.03368896,-0.020640418,0.023605997,0.046144385,0.036535915,-0.037247654,-0.04294156,-0.027164688,-0.0405691,0.024792228,0.11411542,0.043178808,-0.13902627,-0.019335564,0.037722144,-0.008303617,0.025859835,0.0034400697,-0.011625064,-0.009133979,-0.01874245,0.02265701,-0.0111505715,0.0042704316,-0.017081726,0.007591878,0.028588166,-0.018505203,0.0068801395,-0.020759042,-0.009133979,-0.01186231,0.02336875,-0.0008303617,-0.003677316,0.0011862309,0.023131505,-0.02301288,-0.026097082,0.007117386,-0.005100793,0.0020165925,-0.009845717,0.003558693,0.00094898476,0.033570338,0.004863547,-0.021589404,-0.0067615164,-0.04709337,-0.03024889,0.001304854,0.06607307,0.12277491,-0.078647114,-0.10332072,0.022063896,-0.0069987625,-0.000118623095,0.014709264,0.015895495,0.0045076776,0.006287024,-0.012929917,-0.018149333,-0.014116148,-0.0054566623,0.006168401,0.021945274,-0.0011862309,0.010201586,-0.015183756,-0.028113674,0.009845717,-0.005931155,0.0045076776,0.018267957,-0.006287024,-0.004033185,0.007473255,0.010557456,-0.03262135,-0.007829124,-0.007354632,-0.003795939,0.025741212,0.030842004,-0.0055752858,-0.02301288,-0.008659486,-0.027639182,-0.025148096,-0.009015355,0.041162215,0.13273925,-0.028469544,-0.1510072,-0.00996434,0.04068772,0.015539626,0.012929917,0.0023724618,-0.008778109,-0.009608471,-0.010438832,0.0033214467,0.003914562,-0.0046263007,-0.009489847,0.012099556,0.0034400697,-0.00059311546,-0.017912088,-0.008659486,0.0030842004,0.022182519,0.0017793465,-0.012099556,-0.012455425,0.0064056474,0.0053380392,-0.012336802,0.007710501,0.0028469544,-0.023250127,0.00047449238,0.011625064,-0.002609708,0.023250127,-0.014472018,-0.033570338,-0.0106760785,-0.003795939,0.0034400697,0.107472524,-0.08125682,-0.08469689,0.05065206,0.007710501,-0.004863547,-0.001304854,0.02835092,-0.007591878,-0.014827887,-0.018149333,-0.010201586,0.0066428934,0.0014234772,0.011625064,0.0018979695,0.02147078,-0.015065134,-0.01613274,-0.010557456,-0.011031948,0.00996434,-0.0043890546,0.0041518086,0.0042704316,0.03250273,-0.0106760785,-0.03677316,-0.010557456,-0.000118623095,0.010557456,-0.009608471,-0.0043890546,0.020521795,0.02455498,-0.01150644,-0.0008303617,-0.02989302,-0.026334327,-0.03784077,0.051126555,0.11957208,-0.07188559,-0.030011643,0.0066428934,0.00047449238,0.008184994,0.009608471,0.014234772,-0.016369987,-0.0030842004,-0.0045076776,-0.00996434,0.0,0.008778109,0.0043890546,0.007117386,-0.0067615164,-0.0054566623,-0.0054566623,-0.010320209,0.00059311546,0.009727094,-0.0003558693,-0.0033214467,0.01150644,0.008184994,-0.026215704,0.0010676079,0.003558693,-0.0041518086,0.007236009,-0.008540863,0.005100793,-0.008540863,0.0027283311,0.02799505,-0.01340441,0.012692671,-0.048398223,-0.034163453,-0.009015355,0.06642894,0.115183026,-0.10094825,-0.017793464,-0.0003558693,-0.008778109,0.027164688,0.009845717,0.007117386,-0.0032028237,0.007117386,-0.01150644,-0.024317734,-0.015658248,0.005693909,0.026334327,0.026690196,-0.021114912,-0.017200349,-0.005219416,-0.013997525,0.019572811,-0.007473255,-0.011625064,0.017200349,0.014827887,-0.007829124,-0.013997525,-0.001304854,-0.0033214467,0.0033214467,0.005100793,0.0017793465,-0.01613274,0.012574048,0.00023724619,0.014116148,0.007710501,-0.010438832,-0.033926204,-0.01150644,-0.014116148,0.039145622,0.10225311,-0.06310749,-0.03226548,0.004863547,-0.010557456,0.02799505,0.00498217,0.005219416,-0.014234772,0.000118623095,0.009252601,0.003677316,-0.02526672,-0.013641656,0.011980933,0.005219416,0.022182519,-0.017674841,-0.0053380392,-0.0069987625,-0.004863547,0.013523033,-0.0028469544,0.009489847,-0.0029655774,-0.013523033,0.0033214467,0.010201586,-0.007473255,-0.006168401,0.0032028237,0.0029655774,-0.013523033,-0.008540863,0.010320209,0.009371225,0.026927443,-0.015895495,-0.017437596,-0.02336875,-0.007947748,-0.012929917
-0.008812497,-0.016392738,-0.020649623,-0.009820706,0.01441366,-0.004144861,-0.0071321484,-0.002128442,-0.004929024,0.0017176901,-0.0067587374,-0.0049663647,-0.003995497,-0.0057505276,-0.010903598,-0.0073935357,-0.0020911011,-0.004667636,0.005302435,0.007916311,0.0037714501,-0.013032041,-0.015347188,-0.017998405,-0.008737815,0.003323357,0.0028752638,0.007953652,0.012770653,0.00720683,-0.016056668,-0.021433786,-0.030432988,-0.043054275,0.008289722,0.11340489,0.029536802,-0.072889805,-0.037154384,-0.022068584,0.006273303,0.011090304,0.007430877,0.0043315664,-0.002949946,-0.011762443,-0.0023151475,0.0,-0.0060119154,-0.013853544,-0.010791575,0.008439086,0.00059745746,-0.007356195,-0.0017923723,-0.0003734109,-0.0057131867,-0.009783366,-0.0041822023,0.0026138762,0.002501853,-0.0038461322,-0.01232256,-0.010903598,0.00048543417,0.003808791,0.004555613,0.0011949149,-0.0044062487,-0.01471239,-0.004929024,-0.008103017,-0.0064226673,-0.004480931,0.0035100623,0.004518272,0.011837126,0.009634001,-0.005675846,-0.025503965,-0.039469533,-0.051306657,0.041523293,0.119043395,-0.007953652,-0.054891404,-0.03558606,-0.028192522,0.0020911011,0.01336811,0.016056668,0.003360698,0.0052277525,-0.006049257,-0.014637707,-0.01848384,-0.0060865977,0.0023524887,0.012098514,0.0014189614,-0.0036594267,-0.015235164,-0.010716893,0.0059745745,0.0039208145,-0.001643008,-0.005451799,-0.00014936436,-0.00582521,-0.009036544,-0.0043689073,-0.003995497,0.0019043955,0.0017176901,-0.0034727214,0.003323357,-0.0022778064,-0.004891683,-0.0077669467,-0.008924521,-0.008364405,-0.0061239386,-3.734109e-05,0.0030993104,0.0102688,0.012845335,0.0031739927,-0.0028005817,-0.03532467,-0.04451058,-0.045630813,0.07554103,0.11952883,-0.03215068,-0.06176216,-0.037602477,-0.009559319,0.004555613,0.015048459,0.01265863,0.005265094,-0.0007094807,-0.00515307,-0.012621288,-0.012397242,-0.0030246284,-0.0049663647,0.009036544,0.0028005817,-0.0034727214,-0.016280714,-0.003286016,0.00026138764,-0.00014936436,0.0010082094,-0.002128442,-0.003808791,-0.0037714501,-0.0015683258,-0.004630295,-0.0078042876,-0.008028334,-7.468218e-05,0.0032113336,0.009895389,-0.0040701786,-0.00097086834,-0.0028752638,-0.0039208145,-0.011501055,-0.016616784,-0.00011202327,-0.00205376,0.007505559,0.009634001,0.013032041,0.008028334,-0.004256884,-0.03420444,-0.03943219,-0.05448065,0.03797589,0.12871474,0.007057466,-0.056646433,-0.032449406,-0.02292743,0.0,0.012023831,0.006721396,0.012471924,0.011015622,-0.0026138762,-0.015832622,-0.018707886,-0.0076922644,0.0007094807,0.010007412,0.0019790777,-0.007057466,-0.0044435896,-0.004592954,0.0019043955,-0.00089618616,-0.0007841629,-0.0040328377,-0.00787897,0.0017176901,-0.0063479855,-0.006310644,0.003323357,-0.00097086834,-0.0027258995,-0.0013816203,-0.0067587374,0.0019043955,0.005787869,0.0013069381,-0.012098514,-0.010940939,-0.008065675,0.0010455506,0.0025391942,0.00720683,0.0065346905,0.0024271708,-0.008476428,-0.0003734109,-0.01952939,-0.03424178,-0.023972979,0.002837923,0.122852184,-0.012023831,-0.07176957,-0.045406766,-0.03558606,0.013592157,0.0247198,0.024047662,0.014301637,0.0067587374,-0.0052277525,-0.028939344,-0.040141672,-0.00855111,0.0067587374,0.043240983,0.017400948,0.0063853264,-0.021620492,-0.028267205,-0.011277009,-0.0042942255,0.009932729,-0.0010455506,0.0065346905,0.0039581554,-0.0007468218,-0.008140357,-0.00063479855,-0.019604072,-0.0010828916,0.01814777,0.006721396,-0.0063479855,-0.005675846,-0.012733311,-0.004219543,0.008775156,0.0032113336,-0.0055638226,-0.012247877,-0.00063479855,0.013442792,0.02158315,-0.004929024,-0.028976686,-0.0438011,-0.048506077,0.06747535,0.10757968,-0.026288128,-0.061724823,-0.028117841,-0.019043956,0.005265094,0.01232256,0.016243374,0.0033980391,0.0027632406,-0.0025391942,-0.008028334,-0.017438289,-0.011052962,-0.0035100623,0.006982784,0.009858048,-0.0017923723,-0.0073935357,-0.003808791,0.0015683258,-0.0068707606,-0.0022778064,-7.468218e-05,-0.0015309846,-0.001680349,-0.0075429003,-0.010754234,-0.007094807,0.017288925,0.006273303,-0.01030614,-0.005937233,0.0017923723,-0.000410752,-0.010978281,-0.0038834733,-0.010007412,-0.010194117,0.006982784,0.012397242,0.011426373,0.013816203,-0.0017550312,-0.027221654,-0.035362013,-0.036183517,-0.011277009,0.10567529,0.0680728,-0.055899613,-0.048431393,-0.029350096,0.000410752,0.009223249,0.01165042,0.012210537,0.0026885585,-0.0030993104,-0.006609373,-0.013816203,-0.0068707606,-0.001680349,0.004480931,0.010343482,-0.006273303,-0.008849838,-0.0048543415,-0.002912605,-0.0027258995,0.002576535,0.0033980391,0.0036594267,-0.00410752,-0.008588451,-0.013666838,-0.005675846,0.007990994,-0.0011575738,-0.0011949149,0.000821504,0.005787869,-0.0043315664,-0.009036544,-0.005451799,-0.0010828916,-0.005041047,0.00011202327,-0.005377117,-0.00063479855,0.009111226,0.015459212,0.011202327,-0.008849838,-0.022852747,-0.042606182,-0.043016937,0.043987803,0.12374837,-0.007617582,-0.069081016,-0.025279919,-0.015496552,0.0041822023,0.009484637,0.015981987,0.012471924,0.0016056668,-0.013330769,-0.018073088,-0.007430877,-0.0013442793,0.0019790777,0.010380823,-0.005265094,-0.00205376,-0.006273303,-0.007057466,-0.0047049774,0.004256884,0.0057131867,-0.0037714501,-0.0028752638,0.0007094807,-0.0026138762,-0.004219543,-0.0077669467,-0.0043315664,-0.0005227753,0.000410752,0.003995497,0.0019043955,0.0063479855,-0.0010082094,-0.007580241,-0.013778863,-0.014189614,-0.0053397757,0.0034353803,0.014973777,0.011725103,0.011127645,0.0057131867,-0.009634001,-0.03872271,-0.05593695,-0.039954968,0.10619806,0.09630267,-0.06333049,-0.03595947,-0.0308064,-0.005265094,0.009036544,0.011874466,0.0069081015,0.012397242,-0.0035474035,-0.010492846,-0.0123599,-0.011052962,0.0037714501,0.008625791,0.0040328377,-0.000410752,-0.009820706,-0.0064973496,-0.0013069381,-0.0003734109,0.0024271708,7.468218e-05,0.00022404654,0.0013069381,-0.005899892,-0.008775156,0.00063479855,-0.0069081015,0.0019043955,0.00089618616,0.002501853,0.0047423183,0.0019043955,-0.005787869,-0.0077669467,-0.0057131867,-0.0034727214,-0.0016056668,-0.008812497,0.008177699,0.012882676,0.014226955,-0.00067213963,-0.01232256,-0.028080499,-0.03050767,-0.040701788,0.06381592,0.06542159,-0.051605385,-0.028192522,-0.032075997,-0.007841629,0.002464512,0.015085801,0.01643008,0.009671343,-0.0007468218,-0.013965568,-0.018595863,-0.0043315664,0.0049663647,0.0057505276,0.00926059,-0.00067213963,-0.005899892,-0.005787869,0.00018670545,-0.0076549235,0.003323357,0.0030619693,-0.00097086834,0.00026138764,-0.0035847446,-0.0025391942,-0.0061239386,-0.0011575738,0.00022404654,-0.0015309846,0.003323357,0.002576535,0.0026138762,-0.006684055,-0.0036594267,-0.0035847446,-0.007057466,-0.008663133,0.00026138764,0.007057466,0.01747563,0.005675846,-0.0017923723,-0.017774358,-0.025503965,-0.043054275,-0.020313554,0.123150915,0.004592954,-0.056235682,-0.02979819,-0.019454708,0.004480931,0.010866257,0.01441366,0.0015309846,0.005414458,-0.0036967678,-0.007430877,-0.012247877,-0.005675846,-0.0019417367,0.00926059,0.009895389,0.002464512,-0.009447296,-0.0064600087,-0.0031366516,-0.0015683258,0.0040701786,-0.00014936436,-0.003360698,-0.0013816203,0.0014563025,-0.0028005817,-0.0017550312,0.002464512,3.734109e-05,-0.000410752,-0.0018297134,-0.005265094,-0.0068707606,-0.0034727214,-0.006609373,0.0063853264,0.010082094,0.018670544,0.009335272,-0.008812497,-0.030134259,-0.039730918,-0.039320167,0.05067186,0.120686404,-0.019902801,-0.05067186,-0.022329971,-0.010418164,0.0077669467,0.0040328377,0.015309847,0.008849838,0.003323357,-0.008065675,-0.011687761,-0.011463715,-0.0041822023,0.006273303,0.0060119154,-0.0013816203,0.0010455506,-0.0039208145,-0.004518272,0.00044809308,0.0013069381,0.0022404655,-0.004480931,-0.00616128,-0.0023524887,-0.003360698,0.0007468218,0.0063479855,0.004256884,0.00089618616,-0.0019417367,-0.0047423183,-0.0031366516,-0.014152273,-0.003808791,-0.0010455506,0.0047796597,0.009559319,0.017699676,0.011762443,-0.009223249,-0.021695172,-0.043838438,-0.04114988,0.048468735,0.119864896,-0.009746024,-0.05884956,-0.025429282,-0.014002909,0.0056385044,0.0038834733,0.017737018,0.009746024,0.0023898298,-0.006982784,-0.005526481,-0.010007412,-0.00787897,0.0016056668,0.012434583,0.0014936436,-0.009746024,-0.0073935357,0.0013816203,-0.00093352725,0.0017176901,0.005787869,-0.0042942255,-0.0013442793,-0.0076922644,-0.00720683,0.0011202327,0.00026138764,0.0048170006,0.0036220858,0.0029872872,-0.000410752,-0.004891683,-0.008625791,-0.0072441716,-0.0035474035,-0.0031739927,0.00410752,0.006235962,0.022031244,0.0071694893,-0.0031739927,-0.024533097,-0.043315664,-0.05063452,0.053995214,0.12147056,-0.010642211,-0.05765464,-0.02942478,-0.021321762,0.0033980391,0.014264297,0.012845335,0.008513768,0.0067587374,-0.0033980391,-0.012882676,-0.008439086,-0.0051157293,-0.0016056668,0.012994699,0.004667636,-0.006273303,-0.0067960783,0.00011202327,0.0003734109,0.002576535,-0.0043315664,0.0043689073,0.003323357,-0.0036594267,-0.0067587374,-0.0069081015,0.001232256,0.00067213963,-0.0010828916,0.0025391942,0.006684055,0.005899892,0.0014563025,-0.016616784,-0.009783366,-0.012733311,0.00093352725,0.007505559,0.01609401,0.022441994,-0.00018670545,-0.005265094,-0.037826523,-0.044659942,-0.051269315,0.096862786,0.11079101,-0.04458526,-0.05791603,-0.032673452,-0.012583947,0.009783366,0.018782567,0.017662335,0.006609373,-0.0039208145,-0.010492846,-0.009484637,-0.00821504,-0.0027258995,0.0064226673,0.012583947,0.0044062487,-0.007430877,-0.009036544,-0.0014189614,-0.0016056668,0.0003734109,0.0023151475,0.0026138762,0.0010082094,-0.0014563025,-0.0036967678,-0.0032486748,-0.006049257,-0.000821504,0.0049663647,0.0030993104,0.0031366516,0.0022031243,-0.00044809308,-0.004929024,-0.007356195,-0.010044754,-0.0052277525,-0.0011202327,0.011090304,0.017849041,0.013144064,0.0038834733,-0.021433786,-0.038909417,-0.047460526,0.008924521,0.12621288,0.042718206,-0.070836045,-0.038648028,-0.022852747,0.0047796597,0.009521978,0.019604072,0.011762443,-0.00089618616,-0.00063479855,-0.008177699,-0.01643008,-0.0070201247,0.0039581554,0.011277009,0.010754234,-0.0068707606,-0.009559319,-0.0018297134,-0.0003734109,-0.0007468218,0.0019790777,0.004256884,0.0,-0.0051904116,0.0,-0.0051157293,-0.0010828916,-0.0070201247,0.007841629,0.007990994,0.0048170006
-0.0042271954,-0.007693496,-0.003762204,-0.003931292,-0.02553226,-0.039735638,-0.028449027,-0.0101029975,-0.0010567989,0.0021558697,0.01665515,-0.008708023,-0.014372465,-0.015682895,-0.020797802,-0.018430572,-0.00092998304,0.011962963,-0.007947127,-0.026631333,-0.038087033,-0.040581077,-0.008623479,0.0788372,0.09320966,-0.0607448,-0.11295067,-0.045484625,0.01187842,0.02612407,0.023418663,-0.0011413428,-0.032972127,-0.03309894,-0.017373774,-0.00029590368,0.009933909,0.014626097,0.0072285044,-0.0131043065,-0.030393537,-0.048655022,-0.056940325,-0.036649786,0.033437118,0.11603652,0.03478982,-0.06974873,-0.10699032,-0.07207368,-0.020501899,0.040116087,0.03732614,0.008623479,-0.008708023,-0.02075553,-0.028829474,-0.034874365,-0.005748986,0.008073944,0.001817694,-0.0081162155,-0.008073944,-0.014372465,-0.021093706,-0.02248868,-0.019318284,0.027180867,0.061252065,-0.035297085,-0.054150376,-0.018092398,-0.0084966635,0.001817694,-0.0024095015,-0.0038890198,0.007270776,-0.0025363173,-0.013780657,-0.009976181,-0.027730403,-0.027392227,-0.002789949,-0.0030858528,-0.0042271954,-0.00097225496,0.013062035,-0.0052839946,-0.035381626,-0.018726476,-0.007735768,-0.0026631332,-0.004819003,-0.012258867,-0.009173014,0.00088771107,0.0025363173,-0.02354548,-0.021009162,-0.007947127,-0.018811021,-0.0006763513,0.013780657,0.0044385553,-0.029590368,-0.03199987,-0.008581207,0.0035931163,-0.0007608952,-0.002916765,-0.039312918,0.009807094,0.022361865,-0.04261013,-0.032084413,-0.02937901,-0.010990708,0.002789949,0.023249576,0.009764822,-0.020544171,-0.02117825,-0.024052743,-0.019276012,0.0065521533,-0.012174323,-0.021220522,-0.023080489,-0.013907474,0.02506727,0.023925927,0.008031672,-0.033183485,-0.04540008,-0.04924683,-0.03631161,0.005748986,0.025194086,0.05753213,0.018346028,-0.022869129,-0.038594294,-0.045991886,-0.042398773,-0.008285304,0.012047508,0.0031703967,0.010694805,0.015471536,0.011497972,-0.002916765,-0.027603587,-0.04819003,-0.05685578,-0.049880907,0.0052417223,0.1086812,0.07630088,-0.028660387,-0.05448855,-0.078160845,-0.03905929,-0.001817694,0.031450335,0.03872111,-0.002916765,-0.016359247,-0.01750059,-0.018853292,-0.011540244,-0.019191468,-0.01318885,-4.2271957e-05,-0.0032972125,-0.0035931163,-0.008792567,-0.0062562493,-0.009342102,-0.0073130485,-0.016401518,-0.016021071,-0.008834839,-0.010525717,-0.0013527026,0.0014372465,-0.013442482,-0.011751603,-0.0065521533,-0.002747677,-0.018050125,-0.017585134,-0.019360555,-0.005664442,0.008412119,0.015936527,0.0050726347,-0.018684205,-0.039651096,-0.04430101,-0.025616806,0.022192776,0.07727314,-0.044850547,-0.036396153,-0.021516426,-0.022150505,-0.009638006,-0.005706714,0.009426646,0.005748986,-0.0041003795,-0.016697422,-0.021939145,-0.02764586,-0.0052839946,-0.004607643,-0.009215286,-0.0035508443,0.0060871616,0.0010990709,-0.0014372465,-0.01665515,-0.021009162,-0.033014398,-0.022742312,-0.016824238,0.007270776,0.02485591,0.016021071,0.0095111905,-0.015894255,-0.022023689,-0.055249445,-0.040073816,-0.016359247,0.022235049,0.03517027,0.009046199,-0.013484754,0.00092998304,0.00063407933,-0.036184795,-0.040665623,-0.053939015,-0.021896873,0.07477909,0.0639152,-0.0343671,-0.04299058,-0.027772674,-0.001817694,-0.00097225496,-0.0045230994,-0.008877111,-0.024982726,-0.024940453,0.015217904,0.006848057,-0.01208978,-0.015851984,-0.01707787,0.005495354,-0.00088771107,-0.005030363,-0.016781967,-0.019106925,-0.021939145,-0.02248868,-0.009891638,0.00021135977,0.020544171,0.020797802,0.022615496,-0.014161105,-0.069706455,-0.045315538,-0.014161105,0.013992017,0.019233739,0.01707787,0.0052839946,-0.017754221,-0.027941763,-0.024982726,-0.004776731,-0.0022404136,-0.012597043,-0.023291847,-0.02506727,-0.020205995,0.03478982,0.06120979,-0.041215155,-0.032338046,-0.034493916,-0.027180867,-0.008708023,0.00092998304,0.0079894,0.0054530823,-0.0014795185,-0.015217904,-0.014795184,-0.023376392,-0.005791258,-0.010272086,-0.009680278,-0.0035931163,-0.011032981,-0.012174323,0.0039735637,-0.0013527026,-0.011032981,-0.018768748,-0.0072285044,-0.017162414,-0.014287921,-0.006721241,-0.0114557,-0.0017754221,0.00097225496,0.00097225496,0.0048612747,-0.0101029975,-0.02764586,-0.034282558,-0.04345557,-0.030097632,0.018980108,0.04776731,0.06505654,0.020501899,-0.05144497,-0.08598116,-0.1110907,-0.055164903,0.099930905,0.16016844,0.036776602,-0.065859705,-0.09506963,-0.050049994,0.0014795185,0.021009162,0.015386992,-0.0033394846,-0.0014372465,-0.002789949,-0.021770056,-0.033394843,-0.0060026175,0.039693367,-0.011497972,-0.040158357,-0.03174624,-0.019276012,-4.2271957e-05,-0.0008454391,0.023080489,0.0044385553,-0.009807094,-0.01707787,-0.031619422,-0.023672296,-0.0071862326,0.00042271955,0.004480827,0.0097225495,-0.0043540113,-0.014668369,-0.0135270255,-0.015640624,-0.013992017,-0.014541552,-0.0062139775,-0.0011413428,0.019529644,0.010694805,-0.018092398,-0.0423565,-0.04345557,-0.055207174,0.073088214,0.08695342,-0.03956655,-0.059688002,-0.026842691,-0.019022381,-0.005791258,0.016908782,0.0,0.0018599661,-0.01513336,-0.0159788,-0.0035085722,-0.0073553203,-0.022615496,-0.0069748727,0.0054530823,-0.019360555,-0.0015217904,-0.0007608952,-0.009764822,-0.004776731,-0.012216595,-0.016063344,-0.0039735637,-0.0041849236,-0.0054108105,-0.01166706,-0.0103143575,-0.007820312,0.005706714,-0.015429264,-0.011751603,-0.009468918,-0.0052417223,-0.0119206915,-0.0053262664,-0.008834839,-0.0081162155,0.0060026175,-0.0010567989,-0.007820312,-0.009088471,-0.02595498,-0.029463554,-0.03829839,0.026250884,0.09143424,-0.058715746,-0.040327445,-0.024982726,-0.010906165,0.0054108105,-0.010567989,0.0048612747,-0.0011836147,-0.003931292,-0.010483445,-0.011328884,-0.016359247,-0.011540244,-0.009003927,-0.0020290539,-0.008327575,-0.0063407933,0.004607643,-0.0054108105,-0.016612878,-0.01187842,-0.02595498,-0.009257559,0.0030435808,0.008031672,-0.00097225496,-0.0055376263,-0.013357938,-0.015682895,-0.009680278,-0.044047378,-0.009003927,0.023503207,0.025785893,0.023630023,-0.009046199,-0.03474755,-0.035043452,-0.047217775,-0.025785893,0.018219212,0.060913887,0.006594425,-0.035719804,0.00088771107,0.016781967,-0.064718366,-0.06915692,-0.010652533,0.02075553,0.051698603,0.034874365,0.0058758017,-0.027814947,-0.030985344,-0.04535781,-0.044258736,-0.01297749,0.019487372,0.04751368,0.024095016,-0.011582516,-0.036227066,-0.0479364,-0.020459626,-0.0042271954,0.0048612747,0.008792567,0.004945819,-0.012132051,-0.013949745,0.00016908783,-0.009638006,-0.012385683,-0.013780657,-0.015429264,-0.0035931163,0.0007186232,-0.0017754221,-0.008158487,-0.007397592,-0.013357938,-0.025997253,0.0033394846,0.017585134,0.0033394846,-0.024052743,-0.03998927,-0.038974743,-0.018007854,0.08657297,-0.005368538,-0.054404005,-0.011328884,-0.020205995,-0.002874493,-0.008369847,-0.0031281246,0.00042271955,0.0013527026,-0.018092398,-0.009173014,-0.006594425,-0.010187541,-0.008327575,0.0033394846,-0.00029590368,-0.017542861,-0.018472845,-0.0071862326,-0.0008031672,-0.00042271955,0.00059180736,-0.012470227,-0.0036776601,-0.015302448,-0.005368538,-0.009215286,-0.014414737,-0.004607643,-0.0013527026,-0.0034240284,-0.0014795185,-0.005579898,-0.01513336,-0.016021071,-0.015048816,-0.0067635127,0.0089193825,0.0097225495,0.014330193,-0.0016063344,-0.048274573,-0.051614057,-0.04324421,0.045653712,0.10648306,-0.012892947,-0.044639185,-0.022361865,-0.02895629,-0.014245649,-0.016781967,-0.00012681587,0.023883656,0.033986654,0.0027054052,-0.020163722,-0.04734459,-0.044174194,0.0051149065,0.010610261,0.008073944,0.006636697,-0.004015836,-0.007397592,-0.012470227,-0.012892947,-0.014499281,-0.0111175245,-0.0041003795,-0.0023249576,-0.005918074,-0.0070594167,0.0025785894,0.0034240284,-0.0024940453,-0.020121451,-0.010863893,-0.012427955,-0.013949745,-0.005495354,0.0070171445,0.001902238,0.0012258868,0.015006544,-0.009384374,-0.023418663,-0.03825612,-0.054404005,0.007904856,0.11388065,0.030858528,-0.062182046,-0.039777912,-0.040538806,-0.0055376263,0.010779349,0.018768748,0.00046499152,0.0051571787,-0.010567989,-0.014372465,-0.017965581,-0.009130742,-0.00046499152,-0.010948436,0.0016486063,-0.0052417223,-0.002071326,-0.002832221,-0.004945819,-0.016232431,-0.0026208612,-0.0074398643,-0.010610261,-0.015006544,0.0013527026,-0.003931292,-0.0044385553,0.009638006,-0.004819003,-0.011709332,-0.02574362,-0.013146578,-0.011371156,0.0040581077,0.005706714,-0.0026208612,0.0010145269,0.015048816,-0.0067635127,-0.02096689,-0.039228376,-0.05529172,-0.0043540113,0.104158096,0.042906035,-0.065944254,-0.020121451,-0.021474153,-0.012132051,-0.0030013088,0.008369847,0.0018599661,0.006932601,-0.0097225495,-0.011751603,-0.008031672,-0.01644379,0.0019867818,-0.0041849236,-0.009088471,-0.0010567989,-0.0016486063,-0.0051571787,-0.009553462,-0.0030013088,-0.00097225496,-0.013019762,-0.00583353,-0.008200759,0.0011836147,0.0010145269,-0.012174323,8.454391e-05,0.0008454391,-0.008708023,-0.009342102,-0.010694805,-0.017331501,-0.0022404136,-0.0024940453,0.0089193825,0.010948436,0.007397592,-0.0040581077,-0.04299058,-0.04802094,-0.06788876,0.09312512,0.10889256,-0.038002487,-0.06746604,-0.029463554,-0.019064652,0.004819003,0.012597043,0.0044385553,0.005030363,-0.006509881,-0.004903547,-0.015851984,-0.0015217904,-0.014372465,-0.008750295,0.005030363,0.0018599661,-0.0046499153,-0.013780657,-0.0017754221,-0.0059603457,-0.0084966635,-0.0017754221,-0.0038890198,-0.0039735637,-0.0089193825,-0.0042271954,-0.0027054052,-0.002959037,0.0013104306,-0.008665751,-0.004945819,-0.016190158,-0.014668369,-0.009680278,0.0073553203,0.010610261,0.014457009,0.006932601,-0.007862584,-0.029801728,-0.05491127,-0.043751474,0.039439734,0.13036671,-0.0024940453,-0.073003665,-0.03157715,-0.016105615,-0.004903547,0.009807094,0.008877111,0.00097225496,0.011159796,-0.016697422,-0.017881038,-0.0061717057,-0.0042271954,-0.010483445,0.0030013088,-0.0021558697,-0.004776731,-0.009807094,0.0021135977,-0.0022404136,-0.0046499153,-0.0063407933,-0.0058758017,-0.008073944,-0.006467609,-0.0018599661,-0.0015217904,-0.0024095015,0.0031703967,-0.0024095015,-0.0103143575,-0.018853292,-0.008412119,-0.005579898,0.0070594167,0.0072285044,0.010441173,0.008792567,-0.01318885,-0.038382936,-0.04087698,-0.037960216,0.04324421,0.11624788,-0.05402356,-0.0506418,-0.028787201,-0.014837457
0.019086462,-0.0014795706,0.0076937675,-0.011910544,0.0045126905,0.0048825834,0.0049565616,0.0025152701,0.00909936,0.006658068,-0.053190567,0.010504952,0.044535078,-0.010061081,-0.00554839,-0.010061081,-0.003329034,0.01057893,0.016497213,0.0010356995,-0.006510111,-0.015757428,-0.008211617,0.012798286,0.00554839,0.0021453775,0.005992261,-0.0088774245,0.0042167767,0.006658068,0.0,-0.005400433,-0.0076937675,-0.0065840897,-0.03225464,0.028111843,0.06584089,0.00303312,-0.019382376,-0.027150122,-0.043203466,-0.021675711,0.036989268,0.121028885,-0.018938504,-0.09802156,0.013686029,0.010652909,0.019974204,-0.0019234419,-0.0011096781,-0.013833986,-0.0025892488,-0.0034030126,0.021675711,0.002071399,0.007471832,-0.0057703257,-0.014869685,0.0036989267,-0.009173338,0.012354415,0.00088774244,0.0017754849,0.0024412917,0.013981943,-0.012502372,7.397853e-05,-0.0059182825,-0.007471832,-0.030923028,0.01057893,0.05903487,0.007989681,-0.012576351,-0.025374638,-0.017828828,-0.00096172094,0.0011096781,0.01916044,0.005252476,0.0065840897,0.011392694,-0.00806366,-0.01161463,-0.01819872,-0.016571192,-0.024634851,-0.0021453775,0.073608644,0.10527145,-0.05903487,-0.093212955,-0.0058443043,-0.03336432,0.028185822,0.06295573,0.017828828,-0.010726888,-0.016497213,-0.017236998,-0.00088774244,-0.0007397853,0.00088774244,-0.0025152701,-0.0044387123,0.011466673,0.009173338,0.007767746,-0.005992261,-0.012724308,-0.013981943,0.0028851628,0.0088774245,0.0036989267,0.0012576351,-0.008433553,-0.00303312,0.011762587,0.007471832,-0.006953982,-0.011910544,-0.010504952,-0.003329034,0.00858151,0.004734626,0.0011836565,0.0110228015,0.0039948407,-0.0059182825,-0.03321636,-0.009543231,0.051193144,0.00059182825,-0.03440002,-0.03987443,0.084557466,0.05511401,-0.10172048,-0.023007324,0.018272698,0.007027961,0.016793128,0.0044387123,-0.012798286,-0.0071019395,-0.0068800035,-0.0064361324,0.014795707,0.011392694,0.0007397853,-0.0034030126,-0.015535492,-0.0043647336,-0.031070985,0.0042167767,0.055927772,0.007619789,-0.007619789,-0.018272698,-0.0072498964,-0.010652909,0.00051784975,-0.0040688193,0.008137639,0.00806366,0.007323875,0.009987102,-0.0019234419,-0.0062881755,-0.027520014,-0.0026632273,0.0035509698,-7.397853e-05,0.0039208625,0.0057703257,0.0061402186,0.009173338,0.00044387122,-0.020861946,-0.010283017,-0.019900225,-0.020640012,-0.006362154,0.123840064,0.0,-0.12250845,-0.0025892488,0.020935925,0.013316136,-0.020566033,0.0044387123,0.047716156,-0.0050305403,-0.0292955,-0.016867107,0.0032550555,0.009247317,0.007915704,-0.006510111,-0.008803446,0.01464775,0.0010356995,-0.005992261,-0.006362154,-0.0022933346,-0.013464093,-0.0028111844,0.010356995,0.010800866,0.010209038,0.0068060253,-0.02271141,-0.0064361324,-0.041501958,0.011540651,0.058960892,-0.0006658068,-0.0050305403,-0.023007324,-0.0015535492,0.0010356995,-0.013242158,0.011762587,0.01057893,0.0054744114,-0.00036989266,-0.01464775,-0.00036989266,-0.011688609,-0.033882167,0.021305818,0.09646801,-0.08833037,-0.06939187,0.03639744,0.013464093,0.010283017,0.0059182825,0.0076937675,-0.009617209,-0.0151656,-0.012872265,0.004734626,0.0051784976,0.016793128,0.0053264545,-0.00096172094,-0.015609471,-0.011170759,-0.033512276,0.013316136,0.065544985,0.013242158,-0.01568345,-0.03077507,-0.017606892,-0.013094201,0.0048086047,0.020344097,0.009617209,0.015831407,0.0151656,0.0013316136,-0.022489475,-0.03329034,-0.041280024,-0.028703671,0.05970068,0.06783832,0.02115786,0.003329034,-0.052302822,-0.06406541,-0.02522668,0.039726473,0.05999659,-0.0012576351,-0.025966465,-0.013538072,0.08189424,-0.06561896,-0.08211617,0.02877765,0.022119582,0.018420655,0.007915704,-0.0035509698,-0.012798286,-0.013168179,-0.0075458107,0.008359575,0.0054744114,0.0,-0.0067320466,-0.0031070984,0.0151656,0.002071399,-0.020566033,-0.0040688193,0.0057703257,0.008359575,0.004734626,0.0013316136,-0.01671915,0.0049565616,0.009543231,0.007989681,-0.00554839,-0.009543231,-0.034104105,0.0068060253,0.057333365,0.013242158,-0.017384956,-0.033142384,-0.008285596,-0.0017015063,0.01464775,0.019678291,0.010874844,-0.0008137639,-0.0042167767,-0.00909936,-0.024117002,-0.013833986,-0.016941084,0.007027961,0.118513614,-0.049565617,-0.09180736,0.033734214,0.005400433,-0.002071399,-0.03832088,0.012872265,0.04682841,0.007027961,-0.008729467,-0.0058443043,-0.0050305403,-0.016275277,-0.008729467,-0.0007397853,0.00096172094,0.0048086047,0.012872265,0.0133901145,-0.0025152701,-0.013094201,-0.00909936,-0.010356995,0.006510111,0.004586669,-0.007323875,-0.0007397853,0.008433553,0.0067320466,0.00044387122,-0.0028111844,-0.006658068,0.0038468838,-0.013168179,-0.008211617,-0.0065840897,0.013760007,0.011392694,0.014425814,0.011244738,-0.008803446,-0.0475682,-0.011466673,0.03624948,0.00014795706,-0.011540651,-0.013612051,0.09957511,-0.058221105,-0.08884822,0.025966465,0.01464775,0.015017643,0.0071019395,0.0038468838,-0.009691188,-0.0072498964,-0.017236998,-0.0032550555,0.010652909,0.016867107,0.0027372057,0.00096172094,-0.008803446,-0.0141299,-0.029591413,-0.0071019395,0.053116586,0.020566033,-0.0037729053,-0.0098391455,-0.018050762,-0.0088774245,-0.010283017,0.0007397853,0.0053264545,0.013760007,0.011688609,0.009913123,-0.008951402,-0.007471832,-0.020418076,-0.014795707,-0.00036989266,0.0031070984,0.013981943,0.018346677,0.011244738,-0.0011096781,-0.007841725,-0.02123184,-0.023895066,-0.01568345,-0.010800866,0.008359575,0.12591146,-0.04083615,-0.098687366,0.015535492,-0.0038468838,0.004660648,-0.019012483,0.005696347,0.048234005,0.009543231,-0.016571192,-0.022563454,-0.0061402186,0.0021453775,0.00051784975,-0.010874844,0.007027961,0.023821088,0.0028851628,-0.017384956,-0.011688609,-0.012428394,0.009247317,0.007841725,-0.0019974203,0.0022193561,0.0011836565,0.007989681,-0.007323875,0.01109678,-0.047124326,0.00014795706,0.03980045,0.006658068,0.0067320466,-0.0034030126,-0.02426496,-0.017458934,-0.0014055922,0.024043024,0.007471832,0.01671915,-0.009025381,-0.019382376,-0.011688609,-0.008211617,-0.034473997,0.05511401,0.049195725,-0.11585038,-0.014203879,0.03772905,0.016349256,0.005696347,-0.014499793,-0.0027372057,-0.0018494633,-0.00858151,-0.0044387123,0.012502372,0.006214197,0.0017754849,0.0025892488,-0.007841725,-0.002071399,-0.0061402186,-0.027372058,0.00051784975,0.049047768,0.019826246,-0.014721728,-0.017902805,-0.013242158,-0.0014795706,0.006510111,0.0007397853,-0.00088774244,0.01671915,0.0075458107,-0.004660648,-0.014943664,-0.021971624,-0.014277857,0.013760007,0.014277857,0.010652909,0.01057893,0.011910544,-0.006362154,-0.027889907,-0.059182826,0.017828828,0.04497895,0.026040444,-0.010209038,0.022489475,0.036989268,-0.11977125,-0.03624948,0.012946243,0.00909936,0.020566033,0.036027547,0.022489475,-0.0040688193,-0.024043024,-0.031958725,-0.014203879,-0.0054744114,0.012280437,0.011244738,0.025966465,0.00029591413,-0.010061081,0.0057703257,-0.0017015063,-0.022859367,-0.0018494633,0.0015535492,-0.007915704,0.0017015063,0.014277857,0.0143518355,0.005400433,0.0028851628,-0.015239578,-0.016793128,-0.022489475,-0.017902805,0.0668766,0.03883873,-0.0143518355,-0.042019807,-0.023747109,-0.0042167767,0.007619789,0.034621954,0.019456355,0.0011836565,-0.016201299,-0.020935925,-0.021823667,-0.028629692,0.013242158,0.09180736,-0.07575402,-0.02219356,0.026854208,-0.003329034,0.005622369,-0.012354415,-0.0036989267,-0.0011096781,0.0012576351,0.0,0.0071759177,0.0050305403,0.0086554885,-0.008137639,0.009025381,-0.0048825834,-0.015313556,-0.037581097,0.0098391455,0.05008347,0.017458934,0.0026632273,-0.019382376,-0.020640012,-0.00059182825,-0.00059182825,0.0012576351,0.010874844,0.0059182825,-0.0040688193,0.006953982,0.0017015063,-0.0015535492,-0.0076937675,-0.014277857,7.397853e-05,-0.0038468838,0.0068800035,0.023599153,0.009173338,0.0019974203,-0.014795707,-0.022341518,-0.026040444,-0.0044387123,0.0038468838,0.10046285,-0.032624535,-0.096763924,0.021823667,0.024560874,0.01057893,-0.010726888,-0.03950454,0.008951402,0.047642175,0.0076937675,0.00051784975,-0.011466673,-0.0072498964,-0.01464775,-0.010874844,0.010504952,0.006362154,-0.005252476,0.010874844,0.011688609,0.00096172094,0.0012576351,-0.008211617,-0.017236998,-0.009395274,0.0048825834,0.0044387123,0.0026632273,0.009469252,0.0018494633,0.017976783,0.0028111844,-0.022637432,-0.016793128,-0.019456355,-0.0064361324,0.013760007,0.024930766,0.017754849,0.0073978533,-0.0072498964,-0.013020222,-0.01716302,-0.032180663,-0.023969045,0.013020222,0.10571533,0.007619789,-0.068504125,0.021009903,-0.00029591413,0.0059182825,0.0059182825,-0.004734626,-0.044091206,0.0022193561,0.05348648,0.006953982,0.0071759177,-0.007841725,-0.012576351,-0.031588834,0.0007397853,0.014203879,-0.0051784976,0.013316136,0.009543231,0.01768087,-0.020640012,-0.005400433,-0.014721728,-0.0073978533,0.0053264545,-0.0073978533,0.009025381,0.01109678,0.006214197,0.0073978533,-0.00909936,-0.012576351,-0.0143518355,-0.00909936,-0.0025892488,0.0012576351,0.02367313,0.029961307,0.0067320466,-0.0049565616,-0.031218942,-0.018346677,-0.0565196,-0.021675711,0.07826929,0.12975834,-0.00014795706,-0.12835276,-0.0028111844,-0.0026632273,0.0071759177,0.011836565,0.021453775,0.011984522,0.0024412917,-0.022933345,-0.0071759177,-0.003476991,0.0039208625,0.0036989267,0.0054744114,-0.018050762,-0.002071399,0.009913123,-0.005622369,0.01213248,0.01057893,-0.00022193561,-0.026780229,0.0013316136,-0.015387535,-0.0014055922,0.008507531,0.016349256,0.0054744114,0.010874844,-0.0075458107,-0.01265033,-0.036915287,-0.015091621,0.05060132,0.00029591413,-0.0053264545,0.0043647336,0.013316136,-0.01161463,-0.007915704,-0.006362154,-0.011170759,-0.0035509698,-0.021453775,-0.007841725,0.0878865,0.07131531,-0.10356995,-0.052598737,0.009025381,0.00554839,0.014499793,0.004586669,0.01161463,-0.0035509698,0.008507531,-0.0098391455,-0.0141299,-0.0015535492,-0.0018494633,7.397853e-05,-0.002367313,-0.0006658068,0.012798286,-0.0008137639,0.0021453775,0.005400433,-0.009247317,-0.0021453775,-0.01213248,-0.0036249482,-0.005696347,0.00554839,0.009765167,0.008211617,0.012502372,0.0036249482,-0.015017643,-0.021527754,-0.03735916,0.00303312,0.0513411,0.008729467
-0.13128766,-0.024498306,-0.056775007,0.026751861,-0.0430356,-0.08425382,0.09370421,0.028641937,-0.13921145,-0.09275917,-0.024934478,-0.008069175,0.0032712873,-0.047833487,-0.053939894,-0.0035620683,0.0020354677,-0.031113576,-0.05830161,-0.042381343,-0.041727085,-0.058228914,0.015411397,0.010104643,-0.03089549,-0.045725327,-0.07923785,-0.046524975,0.008141871,-0.0070514414,-0.02260823,-0.009450385,-0.044852983,-0.08890632,-0.040563963,0.023189792,0.07901976,-0.096902795,-0.12619899,-0.02384405,0.02907811,0.02551604,-0.033657912,-0.033003654,-0.070150934,-0.046888452,-0.03198592,-0.00029078108,-0.029877758,-0.016356437,0.00087234325,-0.0353299,-0.015702179,-0.055757273,-0.03831041,-0.04136361,-0.014539055,-0.0048705833,-0.015047922,-0.023480574,-0.039255448,-0.027115336,-0.028714633,-0.025806822,-0.03336713,-0.014757141,-0.024934478,-0.0025443346,-0.025079869,-0.048342355,-0.025661431,-0.025879517,-0.038019627,-0.023625964,0.037583455,-0.03104088,-0.057720046,-0.020063896,-0.038092323,-0.0039255447,-0.020863542,-0.032858264,-0.002907811,-0.030168539,-0.031549748,-0.03416678,-0.03402139,-0.021953972,-0.014102883,-0.007851089,-0.014248273,-0.023625964,-0.044344116,-0.044852983,-0.017810341,-0.017955732,-0.0058883172,0.00058156217,-0.042962905,-0.047906183,-0.002907811,-0.012212805,-0.018537294,-0.04179978,-0.068697035,-0.035402596,0.054594148,-0.004579802,-0.04507107,-0.046815757,-0.0646261,-0.017301476,0.06397184,-0.05045052,-0.11667591,-0.015484093,-0.008868823,0.012721673,0.0055248407,0.012794368,-0.046524975,-0.06288141,-0.06259063,-0.07502152,0.035547987,0.008650738,0.013812101,0.0012358197,-0.019773114,-0.07785664,-0.044852983,-0.020281982,0.0018900771,0.015702179,-0.042817514,-0.03293096,-0.006179098,0.009304995,-0.022390144,-0.050668605,-0.04630689,-0.030677404,0.013666711,0.016792608,-0.02137241,-0.043399077,-0.046961147,-0.050232433,-0.019191552,0.044634897,0.057429265,-0.05968282,-0.07872898,-0.019482333,-0.04965087,-0.0322767,0.033149045,0.016865304,-0.028205765,-0.022026667,-0.036638416,-0.038019627,-0.009450385,0.0020354677,-0.027769594,-0.029877758,-0.01890077,-0.0073422226,-0.021299714,-0.025588736,-0.0051613646,-0.0071241367,-0.0072695273,-0.02551604,-0.042672124,-0.046379585,-0.025152564,-0.012067415,0.022971706,-0.008650738,-0.0032712873,-0.011049681,-0.054594148,-0.05582997,-0.027842289,-0.0051613646,-0.012576282,0.07364031,0.002398944,-0.111223765,-0.009813862,-0.021081628,-0.00799648,0.0075603086,-0.022317449,-0.038383104,-0.0077056987,-0.0063244887,-0.0069060507,-0.010831595,-0.04078205,-0.018682685,-0.029586976,0.0033439826,-0.019409638,-0.01970042,0.0018173818,-0.0069060507,-0.04565263,-0.04289021,0.01184933,0.0107589,-0.0074876132,-0.06557114,-0.01751956,0.006397184,-0.0075603086,0.011922025,0.0018173818,-0.02907811,-0.07807472,-0.038092323,0.021590495,-0.0033439826,0.046888452,0.011922025,-0.09355882,-0.025297955,-0.013884797,0.003198592,-0.009014213,-0.018973466,-0.009741167,-0.0036347636,-0.013957492,-0.012648977,-0.033585217,-0.031477053,-0.002907811,-0.010976986,-0.014466359,-0.0069060507,-0.021445105,-0.018682685,-0.0015266007,-0.025734127,-0.0014539055,-0.019555029,-0.03671111,-0.023989439,-0.0013085149,0.0025443346,-0.013521321,-0.002907811,-0.013085149,-0.040709354,-0.0059610126,-0.018028427,-0.020209286,-0.03184053,0.010904291,0.04092744,-0.08250914,-0.012430891,0.0215178,-0.012285501,-0.032858264,-0.04492568,0.024934478,-0.005597536,-0.027696898,-0.024643697,-0.027696898,-0.005015974,0.005597536,0.0044344114,-0.018464599,-0.026969947,-0.042672124,-0.039909706,0.002108163,0.0215178,0.020718152,-0.024789087,-0.045289155,-0.022680925,-0.002108163,-0.016719913,-0.027914984,-0.01722878,-0.0021808583,-0.0018900771,0.0062517934,-0.02442561,-0.023480574,-0.036056854,-0.021299714,-0.021008933,0.05154095,0.011631244,-0.0845446,-0.02384405,-0.018391903,0.01214011,-0.008941518,-0.00537945,-0.018101122,-0.010031948,-0.014684445,-0.035111815,-0.0043617166,-0.009886557,-0.014684445,-0.030604709,0.014248273,0.002108163,-0.0076330034,-0.011703939,-0.021154324,-0.03322174,-0.014466359,-0.027042642,-0.0075603086,0.021808581,0.012794368,0.0006542574,-0.009304995,-0.04398064,-0.058083523,0.010540814,0.020572763,0.0067606606,-0.014539055,-0.0063244887,-0.025443345,-0.036783807,-0.0027624203,0.03751076,-0.022971706,-0.054957625,-0.010904291,0.019046161,0.016937999,0.0038528494,-0.05154095,-0.042672124,0.01875538,-0.011049681,-0.012430891,-0.0063244887,-0.020354677,0.0077056987,0.0022535534,-0.043253686,-0.014175578,-0.00058156217,-0.015702179,0.002398944,-0.03213131,-0.033294436,0.012503587,0.029732367,-0.014175578,0.0058883172,0.0103954235,-0.016211046,-0.16269203,-0.109987944,0.16894381,0.077275075,0.0051613646,-0.02646108,-0.026533775,-0.05503032,-0.092686474,-0.008941518,0.019336943,0.04289021,0.045798022,0.009450385,-0.03983701,-0.07095058,-0.043907944,0.019555029,0.024789087,0.0087961275,0.024861783,-0.05626614,-0.0025443346,-0.0016719913,-0.012212805,-0.009304995,-0.0101773385,0.0059610126,-0.009959253,0.016065655,-0.020718152,-0.016429132,-0.027333422,-0.020790847,0.011558549,0.017737646,-0.0063244887,-0.025952213,-0.012576282,-0.016065655,0.010904291,0.00537945,-0.010250034,-0.007414918,-0.043253686,-0.034530256,0.019336943,0.028351156,-0.020354677,0.042163257,0.02646108,-0.09014214,-0.050305128,-0.008650738,0.05321294,0.008214566,-0.005015974,-0.01766495,0.0055248407,0.016283741,-0.011195072,-0.0061064027,-0.059755515,-0.05779274,0.01766495,0.069496684,0.031477053,-0.011049681,-0.037946932,-0.051104777,-0.0015266007,-0.0024716393,0.017592255,-0.009450385,-0.023044402,0.002907811,0.0039255447,-0.008505347,0.00058156217,-0.007414918,-0.025806822,-0.00799648,-0.0025443346,-0.0073422226,-0.0016719913,0.00094503857,-0.019555029,0.020136591,-0.018246513,-0.033875998,-0.0043617166,0.04994165,-0.033730607,-0.05750196,0.01890077,0.00799648,0.023262488,-0.009813862,-0.008432652,-0.05626614,0.0054521454,0.021590495,0.013666711,0.0028351157,-0.028569242,0.0015266007,-0.014829836,-0.012285501,-0.0044344114,0.004216326,-0.014030187,0.0119947195,-0.020281982,-0.0075603086,0.020209286,-0.022390144,-0.0050886692,-0.0117766345,-0.0117766345,-0.005597536,0.017883036,0.0026170297,-0.0072695273,-0.02246284,-0.0031258967,-0.0072695273,0.014466359,0.0065425746,-0.023989439,-0.007196832,-0.011922025,-0.015556788,-0.0075603086,0.06578922,0.0046524974,-0.06593461,-0.01584757,0.009086909,0.027478812,-0.0065425746,-0.012576282,-0.014829836,-0.0029805063,0.0151933115,0.014829836,-0.019482333,-0.02646108,-0.002398944,0.0060337074,0.019191552,-0.03198592,-0.0013812102,-0.0030532014,-0.0060337074,0.009086909,0.0016719913,0.021081628,-0.03184053,-0.044852983,-0.017374171,0.018973466,0.03518451,0.017810341,0.00537945,-0.029586976,-0.056920398,-0.0061064027,0.04630689,0.022535535,-0.007414918,-0.0119947195,-0.05277677,0.008650738,0.01970042,0.06833356,-0.028932719,-0.07901976,0.0030532014,0.010613509,0.035838768,-0.0060337074,-0.0061064027,-0.03431217,-0.012794368,0.015556788,0.0046524974,0.008941518,0.0006542574,-0.021154324,-0.0047251927,-0.022317449,0.0010177338,0.009959253,0.022899011,-0.010031948,-0.025443345,0.013448626,0.00094503857,0.0033439826,-0.03184053,-0.009741167,0.007414918,0.002907811,0.0027624203,0.002689725,0.008505347,0.0085780425,-0.02813307,-0.025806822,0.021227019,0.023989439,-0.03983701,0.025007173,0.035693377,-0.038528495,-0.012867063,-0.012430891,0.02246284,0.0064698793,0.0017446865,0.0045071067,-0.018464599,-0.023916744,0.011340463,0.019627724,-0.0117766345,0.0,0.012721673,-0.00029078108,-0.010976986,-0.0052340594,-0.015629483,0.023480574,0.00021808581,0.0017446865,-0.0011631243,-0.011049681,-0.008287261,0.002907811,0.031186271,-0.010831595,-0.013303235,-0.0043617166,-0.0054521454,0.026242994,0.0006542574,-0.015484093,-0.015266007,-0.015338702,0.00087234325,0.075893864,-0.029659672,-0.06789739,0.02246284,0.016865304,0.0012358197,-0.002689725,0.011267767,-0.0054521454,0.00087234325,-0.019191552,0.013957492,0.0053067547,-0.006978746,0.003198592,-0.0119947195,-0.0039255447,0.0073422226,0.0025443346,0.0047251927,0.0066879652,-0.0027624203,-0.0073422226,-0.004797888,-0.002398944,-0.0030532014,0.01722878,0.0018173818,0.003198592,0.003198592,-0.008069175,-0.0058883172,-0.014248273,0.011703939,0.013157845,0.006397184,0.018101122,-0.029877758,-0.030822795,0.0015266007,0.042454038,0.013521321,-0.0215178,-0.0025443346,0.0051613646,0.0013085149,-0.0037801543,0.009450385,0.005015974,-0.0068333554,-0.010831595,-0.0022535534,0.014393664,0.0050886692,0.011340463,-0.011195072,-0.011267767,-0.0067606606,0.009595776,0.020572763,-0.0052340594,-0.002398944,0.0027624203,-0.001599296,-0.020427372,0.027914984,-0.00937769,0.0055248407,-0.002108163,0.013012454,-0.0060337074,-0.015920265,-0.0018173818,-0.0041436306,0.025152564,0.013957492,0.014393664,-0.013666711,-0.024716392,-0.028860023,0.014466359,0.055611882,0.034384865,-0.046524975,-0.0039255447,0.0035620683,0.0016719913,0.003489373,0.011049681,0.009595776,0.0010177338,-0.013884797,-0.0053067547,0.0019627723,0.015411397,0.022317449,-0.0119947195,-0.007778394,-0.017374171,0.014320969,0.0077056987,0.011340463,0.0050886692,-0.002108163,-0.010104643,0.0056702313,-0.014539055,0.003707459,0.0061064027,0.011413158,0.014829836,-0.012358196,-0.0069060507,-0.0039255447,0.011267767,0.0077056987,-0.0062517934,-0.014320969,0.002398944,0.0018900771,0.07407648,-0.042017866,-0.059319343,0.00094503857,0.02413483,0.029805062,0.0064698793,0.0050886692,-0.020936238,-0.0012358197,-0.0010904291,0.011631244,-0.0027624203,0.00072695274,0.0021808583,0.019336943,0.0028351157,-0.015629483,0.0133759305,0.0019627723,-0.009668471,-0.0010904291,0.0039255447,0.0107589,0.013521321,-0.016792608,0.0076330034,0.0072695273,0.0006542574,-0.0006542574,-0.007196832,0.0075603086,0.013812101,0.008432652,-0.013812101,0.0055248407,-0.0015266007,0.03612955,0.0054521454,-0.011922025,-0.04565263,-0.0055248407,0.05335833,-0.005597536,0.002689725,-0.016865304,0.0107589,0.0010177338,0.0021808583,0.010468119,0.01323054,0.0063244887,-0.021881277,-0.02660647,0.030168539,0.03642033,0.015556788,-0.011413158
0.014658021,0.026593838,0.0029316042,-0.024499834,-0.039367255,-0.02052123,0.038215555,-0.0034551048,-0.025232736,-0.02104473,-0.0692068,-0.03434165,0.037796754,0.10595655,-0.0026175037,-0.11517016,-0.031410046,-0.0018846026,0.014972121,0.005025607,-0.010051214,-0.008585412,-0.022929331,-0.00073290104,0.0031410044,-0.012982818,-0.0074337106,-0.011307616,-0.022405831,-0.010679415,0.010470015,0.0,-0.02774554,0.0015705022,0.015495622,-0.03612155,0.0006282009,0.032352347,-0.04345056,-0.011202916,0.0023034033,-0.012878118,0.02879254,0.0059679085,-0.057166282,-0.03538865,-0.0012564018,-0.04324116,0.08763402,0.048476167,0.00711961,-0.032666445,-0.12574488,-0.105118945,0.037377954,0.05695688,0.19013546,0.04952317,-0.18217826,-0.07632641,-0.039786056,0.016123822,0.011098215,0.024081035,0.077059306,0.017380225,-0.037901454,-0.06564699,-0.045963366,0.031933546,-0.0052350075,-0.0047115064,0.020311829,0.0017799025,0.009841814,-0.024290435,-0.011412316,-0.002094003,-0.020207128,-0.007957211,-0.013715719,0.02795494,0.031619444,-0.04774327,0.004920907,0.034969848,0.0026175037,-0.024604535,-0.044183463,-0.024185734,0.031095944,0.02774554,0.023034032,-0.02125413,-0.037377954,0.0009423013,0.017380225,0.0059679085,-0.029734842,-0.023034032,-0.039262556,0.09758054,0.008690112,-0.10386255,0.012982818,-0.013925119,-0.0011517017,0.010993515,0.030467743,0.005025607,-0.025337435,-0.037377954,-0.0013611019,0.03612155,-0.0039786054,-0.018008426,-0.0065961094,0.013925119,0.012982818,-0.0040833056,-0.027222037,-0.009004213,0.013925119,0.018950727,0.0040833056,0.008585412,-0.027640838,-0.014867421,-0.00711961,0.010993515,0.0019893027,0.027536139,0.0019893027,-0.011412316,-0.011098215,-0.030258343,-0.025128035,-0.0074337106,0.032875847,0.054025277,0.032457046,-0.02156823,-0.046591565,-0.05496758,-0.0015705022,0.019893028,0.0075384104,0.10386255,0.027117338,-0.11967227,0.024813935,-0.0055491077,-0.016961424,0.0078525115,0.025756236,0.0047115064,0.0070149098,0.0011517017,0.0043974062,-0.0075384104,-0.031305343,-0.005025607,-0.0026175037,0.039786056,0.034027547,-0.0140298195,-0.032771148,-0.018950727,0.022301132,0.02104473,-0.025756236,-0.0030363044,0.013506319,0.015914422,-0.0036645052,-0.023452833,0.0021987031,0.0010470015,0.015076821,0.011621716,-0.018950727,0.0009423013,0.011098215,0.0025128035,-0.006386709,-0.0065961094,0.004292706,0.038006153,0.008480712,-0.018427227,-0.02177763,-0.018741326,-0.0010470015,-0.020625928,0.10721295,0.060411986,-0.11276206,-0.03622625,0.012982818,0.012564017,0.013820419,0.006491409,0.015914422,-0.003559805,0.009527713,-0.011202916,-0.015390921,-0.00711961,0.011935817,0.018427227,0.010051214,-0.014658021,-0.0016752024,0.026489137,-0.017799025,0.005653808,0.0014658021,-0.010470015,-0.0005235007,-0.0024081033,-0.0008376012,0.040414255,0.0039786054,-0.018531926,-0.020416528,-0.00010470015,0.023766933,-0.010574715,0.0097371135,-0.00031410044,0.0024081033,0.0061773085,0.009632413,0.020835329,-0.0043974062,-0.018427227,-0.0060726088,-0.002094003,-0.036435653,-0.013192219,0.15150112,-0.017589625,-0.09433483,-0.002826904,-0.02052123,0.022510532,0.015600322,0.018427227,0.024709234,0.0059679085,-0.04240356,-0.033608746,0.032457046,0.023766933,0.008271311,0.0065961094,-0.00711961,-0.0031410044,0.010679415,-0.0068055093,-0.019264827,-0.008376012,0.044706963,0.010365315,0.008585412,-0.0004188006,-0.015705023,0.005653808,0.008061911,0.0033504048,-0.005025607,0.0019893027,0.014762721,-0.0004188006,-0.009841814,0.017589625,0.03549335,-0.0045021065,-0.023452833,0.002094003,-0.023452833,-0.018322526,-0.005653808,0.11600776,0.08260842,-0.10072154,-0.05800388,0.0012564018,0.031933546,0.008899513,0.009841814,0.019055426,0.008585412,-0.009841814,0.004188006,0.018322526,-0.013192219,-0.0052350075,0.009841814,0.0047115064,0.0140298195,0.031305343,-0.009946514,-0.009841814,0.0097371135,-0.019474227,0.013925119,0.038006153,0.006491409,-0.0030363044,-0.010365315,-0.009946514,0.016542623,0.023348132,0.009004213,-0.0010470015,-0.010784115,-0.0008376012,0.009527713,0.012982818,0.00722431,-0.010679415,0.0017799025,0.025860935,0.009946514,-0.0011517017,-0.0021987031,0.0037692052,-0.02177763,-0.013296919,0.0016752024,0.11548426,0.041775357,-0.10920225,0.0074337106,-0.011726417,0.008061911,0.039471954,0.018217826,0.02104473,-0.0004188006,0.0006282009,-0.015809722,-0.010470015,0.0068055093,0.02156823,0.009527713,0.014658021,0.004920907,-0.0034551048,0.0031410044,-0.0010470015,0.0065961094,-0.010470015,0.018636625,0.020102428,0.008480712,0.0013611019,-0.009423013,0.010888815,0.00711961,0.0039786054,0.0054444075,0.0031410044,-0.0019893027,-0.01423922,0.03413225,0.010574715,0.011412316,0.008166611,-0.012040517,0.008690112,-0.0039786054,-0.014658021,-0.0038739054,0.031305343,0.03517925,0.022929331,-0.017275523,0.012249917,-0.025442136,-0.026384437,-0.016961424,0.08554002,0.016752023,-0.06533289,0.029734842,-0.005025607,0.011935817,-0.012773418,0.009423013,0.02146353,0.0051303073,0.008899513,0.019997729,0.012982818,-0.018636625,-0.0010470015,-0.0074337106,0.018427227,0.016856724,0.0052350075,0.026175037,0.0026175037,-0.024813935,-0.004188006,0.018322526,-0.0017799025,0.026803238,0.006386709,-0.0008376012,0.0073290104,-0.0047115064,0.0018846026,0.009841814,0.017903725,0.0060726088,-0.0043974062,0.0069102095,0.0052350075,0.0078525115,-0.0005235007,0.010470015,0.002094003,-0.0053397077,0.020835329,0.016228523,0.018217826,-0.0011517017,-0.016228523,-0.019683627,-0.01423922,0.019055426,0.1369478,-0.014867421,-0.0743371,0.017066125,-0.017484924,0.017066125,0.013296919,0.015705023,0.017066125,0.013506319,0.00073290104,0.002094003,-0.013820419,0.0009423013,0.015809722,0.0097371135,0.019160127,0.0018846026,-0.008061911,-0.004188006,0.02146353,0.020102428,-0.0010470015,-0.0040833056,0.006386709,0.005653808,-0.0021987031,0.022615232,-0.00010470015,0.013506319,0.0038739054,0.012564017,0.012982818,-0.008585412,-0.017170824,0.010470015,0.010679415,0.025965637,0.024918634,-0.0016752024,0.00711961,-0.0061773085,-0.005025607,-0.031514745,-0.017799025,0.098836936,0.046172764,-0.05004667,0.02125413,-0.016961424,0.0070149098,0.014658021,-0.012564017,0.029106641,0.023243433,-0.0002094003,-0.018008426,0.0024081033,0.029944243,-0.008585412,0.0059679085,0.009632413,0.0009423013,0.009946514,0.009632413,0.0036645052,-0.019578928,0.019893028,0.025756236,-0.0023034033,0.006386709,0.0027222037,0.0062820087,-0.013401619,0.009527713,0.029839542,0.011307616,-0.005653808,0.007747811,-0.0052350075,0.0054444075,0.0027222037,0.0033504048,0.032247644,0.0061773085,0.0013611019,0.00073290104,-0.0051303073,-0.030153641,-0.0070149098,0.10700355,0.060935486,-0.083864816,-0.031619444,0.023662234,0.008376012,0.020625928,0.016752023,0.0024081033,-0.009841814,0.0034551048,0.0121452175,0.012040517,0.0019893027,-0.0078525115,0.02135883,0.004188006,0.0068055093,0.014553321,-0.006491409,-0.020311829,0.030886544,0.018636625,0.014867421,0.0067008096,-0.025023336,0.011517016,0.014553321,0.0075384104,-0.0004188006,0.017380225,-0.009004213,0.0004188006,0.032980546,0.024290435,-0.010155914,-0.02135883,-0.0121452175,0.008899513,0.013401619,0.038320255,0.024395134,-0.0038739054,-0.023243433,-0.008376012,-0.015705023,-0.024813935,0.068369195,0.10396725,-0.04868557,-0.07475591,0.029106641,0.0036645052,0.019055426,0.0038739054,0.008585412,0.01413452,0.017484924,0.0019893027,-0.008061911,-0.011412316,0.015705023,0.018636625,0.002094003,0.009946514,-0.007957211,0.022510532,0.020416528,0.0029316042,-0.014867421,-0.010365315,0.004920907,0.018741326,0.028583141,0.012459317,-0.0025128035,0.0006282009,-0.021882331,0.0073290104,0.016961424,0.01423922,0.027326738,0.002094003,-0.0047115064,-0.008690112,0.009946514,-0.007747811,-0.012564017,0.028583141,0.05601458,-0.0060726088,-0.027431438,-0.0140298195,-0.019264827,-0.03654035,0.109830454,0.09423013,-0.083550714,-0.05664278,-0.0076431106,0.020625928,0.052350074,0.004920907,-0.00031410044,-0.008376012,-0.011202916,0.004188006,0.0076431106,0.019474227,0.0045021065,-0.0006282009,0.013611019,0.016333222,-0.0034551048,0.0047115064,-0.0009423013,-0.0002094003,-0.013192219,0.012564017,0.03413225,0.004292706,0.009527713,-0.014867421,-0.0069102095,-0.008271311,0.02167293,0.02114943,0.012668718,0.008166611,-0.0013611019,-0.008690112,0.0008376012,0.016856724,-0.0002094003,0.014972121,0.010888815,-0.0052350075,0.022301132,0.019264827,0.0055491077,-0.033922847,-0.029106641,-0.018322526,0.079676814,0.12469787,-0.0692068,-0.041147158,-0.007747811,-0.036854453,0.03507455,0.039786056,0.030572442,0.0027222037,-0.018217826,-0.0014658021,0.0045021065,0.0009423013,-0.0061773085,0.008690112,0.025756236,0.0065961094,0.011412316,-0.02104473,0.011621716,0.012354617,0.00073290104,0.0036645052,0.0030363044,0.0065961094,0.0140298195,0.0046068067,-0.00031410044,0.0062820087,0.0060726088,0.011726417,0.0061773085,0.0121452175,-0.019788329,-0.0046068067,0.0052350075,0.0070149098,0.03528395,0.012878118,0.018217826,-0.0014658021,-0.02921134,-0.032980546,-0.0032457046,0.00010470015,0.111715056,0.07758281,-0.08564472,-0.015181521,-0.022510532,0.0023034033,0.023766933,0.024290435,0.02774554,0.012982818,-0.017903725,-0.010365315,0.0052350075,-0.0040833056,0.02135883,0.0065961094,0.0023034033,0.012668718,-0.0017799025,0.006491409,-0.005653808,0.0013611019,0.032666445,0.011831117,-0.009423013,0.0076431106,-0.030048942,0.022405831,0.02868784,0.0047115064,0.0054444075,-0.002094003,0.0078525115,0.016123822,-0.015390921,0.0027222037,0.019055426,-0.0073290104,0.02167293,-0.0048162066,-0.0051303073,0.013715719,0.02177763,0.0062820087,-0.015809722,0.017484924,0.019369528,-0.016752023,-0.032038245,-0.004292706,0.12511668,-0.042194158,-0.069939695,0.014658021,0.0130875185,0.02837374,-0.0045021065,0.015390921,0.0013611019,0.016123822,-0.0014658021,-0.02219643,0.0045021065,0.023871634,0.023452833,0.013715719,-0.0027222037,-0.016019123,0.013715719,0.00010470015,-0.010470015,0.0097371135,0.010993515,0.036959153,-0.0004188006,-0.0043974062,-0.013506319,-0.01423922,0.017589625,0.0097371135,0.0130875185,0.0074337106
0.01669011,-0.008518911,-0.0026947574,0.02781685,0.02972926,0.044767745,0.02972926,-0.002520902,0.0113005955,0.018863302,0.035205703,0.016603183,0.01590776,0.0018254808,0.024687456,0.02303583,0.041812204,0.04007365,-0.0052156597,0.0070411405,0.044767745,0.080842726,-0.03703118,0.0032163234,0.038856663,0.0367704,0.022166554,-0.003998672,0.0073019234,0.02373125,0.04224684,0.046767082,0.01669011,-0.008518911,-0.0026947574,0.02781685,0.02972926,0.044767745,0.02972926,-0.002520902,0.0113005955,0.018863302,0.035205703,0.016603183,0.01590776,0.0018254808,0.024687456,0.02303583,0.041812204,0.04007365,-0.0052156597,0.0070411405,0.002520902,0.025382876,0.04007365,0.033988714,0.008953549,-0.0013039149,0.027295286,-0.008605838,0.091100186,0.018341737,-0.05120039,0.02972926,0.036857326,0.029816188,0.012865294,0.020514928,0.008953549,0.015560051,0.05007033,0.028512273,-0.031467814,0.008692766,0.043550756,0.06024087,0.018602518,-0.02520902,-0.017907098,0.045115456,0.051026534,0.02633908,0.01521234,0.019993361,0.002520902,0.025382876,0.04007365,0.033988714,0.008953549,-0.0013039149,0.027295286,-0.008605838,0.091100186,0.018341737,-0.05120039,0.02972926,0.036857326,0.029816188,0.012865294,0.020514928,0.008953549,0.015560051,0.05007033,0.028512273,-0.031467814,0.008692766,0.043550756,0.06024087,0.018602518,-0.02520902,-0.017907098,0.045115456,0.051026534,0.02633908,0.01521234,0.019993361,0.0146907745,-0.002781685,0.0245136,0.028164562,0.03164167,0.017733242,0.020949567,0.012691438,0.0021731914,0.025904443,0.040160578,0.02677372,0.028512273,0.0074757785,0.00026078298,-0.019906433,0.03598805,0.12847908,0.007736562,-0.033988714,0.017211676,0.01486463,0.03529263,0.023905106,0.022514263,0.022427335,0.014516919,0.010518246,0.008431983,0.05354744,0.05389515,-0.00017385531,-0.0049548764,0.022514263,0.019558724,0.013126076,0.029555405,0.029033838,0.027295286,0.009040477,0.024426673,0.03451028,0.022775047,0.00964897,0.016777039,0.016429327,0.0070411405,0.035466485,0.03824817,0.039812867,0.014603847,-0.0022601192,0.027382212,0.0041725277,0.032424018,0.023470469,0.014343063,-0.0046071657,0.079364955,0.081972785,-0.05346051,-0.019732578,0.019037157,0.037639678,-0.0049548764,0.022514263,0.019558724,0.013126076,0.029555405,0.029033838,0.027295286,0.009040477,0.024426673,0.03451028,0.022775047,0.00964897,0.016777039,0.016429327,0.0070411405,0.035466485,0.03824817,0.039812867,0.014603847,-0.0022601192,0.027382212,0.0041725277,0.032424018,0.023470469,0.014343063,-0.0046071657,0.079364955,0.081972785,-0.05346051,-0.019732578,0.019037157,0.037639678,0.038769737,0.040247507,0.018167881,0.011213668,0.0059980084,0.010257464,0.033467147,0.015473124,0.023122758,0.015994688,0.03164167,0.03451028,0.01486463,0.00669343,0.020862639,0.013299932,0.01851559,0.035031848,0.02416589,0.021036493,0.02112342,0.016863966,0.012691438,0.019906433,0.032076307,0.008258128,0.017037822,0.020428,0.0326848,0.042159915,0.008953549,0.008605838,0.00052156596,0.02825149,0.009214331,0.0719761,0.008258128,-0.01590776,0.027295286,0.013908425,0.024948237,0.016429327,0.033641003,0.015299268,0.026165225,0.033206366,0.018167881,0.0015646978,0.015733907,0.023644323,0.03007697,0.023905106,0.02373125,0.026426008,0.024339745,0.010083608,0.0049548764,0.02303583,0.026078297,0.022166554,0.023644323,0.018080954,0.029903114,0.018776374,0.00052156596,0.02825149,0.009214331,0.0719761,0.008258128,-0.01590776,0.027295286,0.013908425,0.024948237,0.016429327,0.033641003,0.015299268,0.026165225,0.033206366,0.018167881,0.0015646978,0.015733907,0.023644323,0.03007697,0.023905106,0.02373125,0.026426008,0.024339745,0.010083608,0.0049548764,0.02303583,0.026078297,0.022166554,0.023644323,0.018080954,0.029903114,0.018776374,0.020080289,0.019993361,0.011822161,0.008953549,0.023122758,0.038682807,0.043289974,0.01851559,-0.017994026,-0.0163424,0.075279355,0.100401446,-0.028425345,-0.019906433,0.006867285,0.019384868,0.030250825,0.043029193,0.05493828,0.026599864,-0.008779693,-0.012343728,0.01782017,0.030250825,0.026860647,0.03181552,0.02677372,0.03164167,0.026599864,-0.017298603,0.0026078299,0.046506297,0.020080289,0.019993361,0.011822161,0.008953549,0.023122758,0.038682807,0.043289974,0.01851559,-0.017994026,-0.0163424,0.075279355,0.100401446,-0.028425345,-0.019906433,0.006867285,0.019384868,0.030250825,0.043029193,0.05493828,0.026599864,-0.008779693,-0.012343728,0.01782017,0.030250825,0.026860647,0.03181552,0.02677372,0.03164167,0.026599864,-0.017298603,0.0026078299,0.046506297,0.015038485,0.023818178,0.024948237,0.017559387,0.01521234,0.024339745,0.021731915,0.015473124,0.022861974,0.019384868,0.013560715,0.01895023,0.008692766,0.034684137,0.046245515,0.013560715,0.008431983,-0.031380884,0.09153482,0.057719965,-0.052504305,0.0029555403,0.02633908,0.034944918,0.038335096,0.03233709,0.018776374,-0.0010431319,-0.0047810213,0.013299932,0.041464493,0.02599137,0.015038485,0.023818178,0.024948237,0.017559387,0.01521234,0.024339745,0.021731915,0.015473124,0.022861974,0.019384868,0.013560715,0.01895023,0.008692766,0.034684137,0.046245515,0.013560715,0.008431983,-0.031380884,0.09153482,0.057719965,-0.052504305,0.0029555403,0.02633908,0.034944918,0.038335096,0.03233709,0.018776374,-0.0010431319,-0.0047810213,0.013299932,0.041464493,0.02599137,0.022948902,0.015560051,0.02373125,0.013995353,0.020601856,0.01521234,0.018080954,0.036161907,0.012343728,0.013821498,0.015560051,0.02486131,0.031728595,0.008431983,0.01486463,0.020688783,0.02746914,0.03703118,0.0031293957,0.0146907745,0.021384204,0.0036509617,0.012778366,0.006606502,0.09405573,0.055459846,-0.064326465,-0.006867285,0.02416589,0.039552085,0.036335763,0.029294621,0.0108659575,0.00095620425,0.018602518,0.022166554,0.016516255,0.015994688,0.031380884,0.040682144,0.0081712,-0.008084272,0.013908425,0.0151254125,0.034771062,0.024078961,0.020775711,0.019819506,0.017733242,0.0342495,0.01564698,0.009822826,-0.008518911,0.012343728,0.040682144,0.017211676,0.03824817,0.038943592,0.0113005955,0.013647643,-0.00052156596,-0.01825481,0.012865294,0.018167881,0.0108659575,0.00095620425,0.018602518,0.022166554,0.016516255,0.015994688,0.031380884,0.040682144,0.0081712,-0.008084272,0.013908425,0.0151254125,0.034771062,0.024078961,0.020775711,0.019819506,0.017733242,0.0342495,0.01564698,0.009822826,-0.008518911,0.012343728,0.040682144,0.017211676,0.03824817,0.038943592,0.0113005955,0.013647643,-0.00052156596,-0.01825481,0.012865294,0.018167881,0.09918446,0.04572395,-0.04233377,-0.0033901788,0.0122568,0.022948902,0.013473787,0.030598536,0.034944918,0.020688783,0.022861974,0.0073019234,0.010257464,0.018428663,0.0059110806,0.034597207,0.029903114,0.020688783,0.016429327,0.011822161,0.00964897,0.015820835,0.011909089,0.023992034,0.02599137,0.02677372,0.02190577,0.0040856,0.0163424,0.013299932,0.0122568,-0.0015646978,0.09918446,0.04572395,-0.04233377,-0.0033901788,0.0122568,0.022948902,0.013473787,0.030598536,0.034944918,0.020688783,0.022861974,0.0073019234,0.010257464,0.018428663,0.0059110806,0.034597207,0.029903114,0.020688783,0.016429327,0.011822161,0.00964897,0.015820835,0.011909089,0.023992034,0.02599137,0.02677372,0.02190577,0.0040856,0.0163424,0.013299932,0.0122568,-0.0015646978,0.040160578,0.035466485,0.0342495,0.023557395,-0.0026947574,-0.011735234,0.005302587,0.001999336,0.05085268,0.11822162,-0.046854008,-0.01564698,0.010518246,0.0058241533,0.02825149,0.029033838,0.035727266,0.023644323,0.0108659575,0.0074757785,0.006171864,0.012343728,0.020254144,0.02190577,0.03129396,0.01712475,0.019558724,0.013560715,0.009127405,0.023992034,0.014169209,0.014951557,0.019037157,0.028512273,0.017298603,0.01895023,0.0104313195,0.009040477,0.02155806,0.012865294,0.016516255,0.018776374,0.027295286,0.029294621,0.031380884,0.00026078298,0.00095620425,0.014777702,0.006432647,0.008692766,0.07953881,0.041377567,-0.02677372,0.019558724,0.0062587913,0.02373125,0.02303583,0.020514928,0.0070411405,0.014951557,0.035727266,0.022601191,0.015038485,0.008084272,0.019037157,0.028512273,0.017298603,0.01895023,0.0104313195,0.009040477,0.02155806,0.012865294,0.016516255,0.018776374,0.027295286,0.029294621,0.031380884,0.00026078298,0.00095620425,0.014777702,0.006432647,0.008692766,0.07953881,0.041377567,-0.02677372,0.019558724,0.0062587913,0.02373125,0.02303583,0.020514928,0.0070411405,0.014951557,0.035727266,0.022601191,0.015038485,0.008084272,0.0042594555,0.016603183,0.031033175,0.031380884,0.017646315,-0.0034771063,0.01373457,0.02112342,0.02972926,0.02520902,0.016168544,0.0151254125,0.007910417,0.009388187,0.008084272,0.028859982,0.02225348,0.02677372,0.010257464,0.031380884,0.009996681,0.0017385532,0.008953549,-0.0021731914,0.013647643,0.09866289,0.047723286,-0.06528267,-0.01077903,0.025122093,0.031380884,0.023296613,0.023992034,0.016603183,0.023992034,0.024948237,-0.012952222,-0.028512273,0.038074315,0.053286657,0.01895023,0.024948237,0.009214331,0.013126076,-0.0018254808,-0.0059110806,0.022079626,0.027382212,0.038769737,0.007736562,0.007649634,0.017907098,0.015733907,0.022514263,0.0020862638,-0.0010431319,0.013560715,0.029642332,0.032597873,0.028077634,0.006084936,8.6927656e-05,0.020688783,0.007910417,0.023992034,0.016603183,0.023992034,0.024948237,-0.012952222,-0.028512273,0.038074315,0.053286657,0.01895023,0.024948237,0.009214331,0.013126076,-0.0018254808,-0.0059110806,0.022079626,0.027382212,0.038769737,0.007736562,0.007649634,0.017907098,0.015733907,0.022514263,0.0020862638,-0.0010431319,0.013560715,0.029642332,0.032597873,0.028077634,0.006084936,8.6927656e-05,0.020688783,0.007910417,0.004346383,-0.003824817,0.05754611,0.08023423,-0.041899133,-0.021384204
-0.0034252107,-0.003968367,-0.0035693133,-0.004644541,0.0049549164,-0.004882865,-0.0060412292,0.0012137883,-0.002150456,-0.0029929024,-0.0018400808,-0.0018899625,-0.0026991547,-0.0014133151,-0.0050934767,-0.0029596481,0.0010142614,0.0,-0.00026049337,-0.0015130785,-0.0049992558,-0.009976341,-0.00039905368,0.0009643797,0.0038131794,0.00039905368,-0.004677796,-0.004772017,-0.0018788776,-0.0005099019,-0.0024830005,-0.002300101,-0.0033531592,-0.0030039873,0.0007759377,0.00049881707,-0.0005431564,-0.0040182485,-0.004494896,0.005741939,-0.010109359,-0.0071053724,0.00024386613,0.00060966535,0.0022834737,0.0038686036,-0.00411247,-0.0057197693,-0.0034584652,-0.008701587,-0.0033476169,0.0009976341,0.0054537333,0.0027878333,0.0023721524,-0.0022890163,-0.012930447,-0.01194944,-0.00066508946,0.005126731,0.003480635,0.0040570456,0.003186887,-0.0022668466,-0.0077094953,-0.007476714,-0.008873402,-0.0035471437,0.005459276,0.0038907733,0.0070388634,-0.00068171666,-0.005708684,-0.010580464,-0.007022236,-0.00048218985,0.0021172015,0.0047941864,0.0002272389,-0.00519324,-0.0028210878,-0.004262115,-0.0014687392,0.0052375793,0.0013966878,-0.0014687392,-0.00438959,-0.004494896,-0.0017735718,-0.0041457242,-0.004461642,0.0038020946,0.0008701587,0.0050546797,0.0054703606,-0.0068670483,-0.015535381,-0.008856774,0.0020728621,0.0024386614,0.0034418378,0.002233592,-0.0007038863,8.867859e-05,0.0004156809,-0.004910577,-0.005620006,-0.0073547806,-0.0028210878,0.0008369042,0.008285906,0.0070942873,-0.00487178,-0.0039628246,-0.004478269,-0.004400675,-0.0029707327,-0.00039905368,0.003092666,0.00039905368,-0.002150456,0.00052098674,-0.002111659,-0.0038963156,0.00039351126,0.0005320716,-0.0028875966,-0.0016460964,-0.0014853664,-0.00092558283,0.00039905368,-7.2051356e-05,-9.4221e-05,-0.0026991547,-0.0027379515,-0.0016460964,-7.7593766e-05,-0.00033808715,-0.000188442,-0.0017957415,-0.00016072995,-0.00048218985,-0.0014853664,-0.0027324092,-0.00093112525,-0.001008719,0.0009699221,0.0001828996,-0.0023887795,0.0007038863,-0.001075228,-0.001574045,-0.003092666,-2.771206e-05,0.0008701587,0.0005874957,-0.0019675563,-0.0029929024,-0.0023998644,-0.0019343018,0.003724501,0.0013634333,-0.00024940853,-0.0034141259,-0.0043119965,-0.0016072995,-0.0002660358,0.0019453866,-0.00038796884,0.0013523486,0.00065400463,-0.0018068263,-0.004062588,-0.0018788776,-9.976342e-05,0.00095329486,-0.000282663,-0.00012747548,0.00094775244,-0.0012359578,-0.003685704,-0.0018345384,-0.00089232833,0.00035471437,0.0059192963,-0.0056975996,-0.0037189585,-0.0015241633,-0.0018622505,0.0014243999,0.0027822908,-0.00016072995,-0.0010364311,-0.0026271034,-0.0024164917,-0.00015518753,-1.1084824e-05,0.001075228,-0.00025495095,-6.650895e-05,-0.0027379515,-0.0014964512,0.0006429198,0.001989726,-7.7593766e-05,4.4339296e-05,-0.0024275766,-0.0041845213,5.542412e-06,0.0015019936,0.0024608308,0.00052098674,-0.0030594114,-0.0020617773,-0.00080919213,0.0011639065,0.0021559983,-0.00029929026,-0.0067506577,-0.0070277783,0.011062655,0.0025384247,-0.003242311,-0.0021061166,-0.0028875966,-0.002920851,-0.002610476,0.0014687392,0.0065677585,0.0071053724,-0.004361878,-0.012814057,-0.0018012839,0.0027656637,0.0043119965,0.0021837105,-0.00044339296,-0.0019564715,-0.011217842,-0.0072661024,0.004372963,0.014521119,0.0138837425,-0.005969178,-0.018932879,-0.005060222,0.0026271034,-0.005232037,-0.011849677,0.0008369042,0.031940922,0.028737407,-0.007637444,-0.024680361,-0.030843522,-0.027418312,0.0016405539,0.013368298,0.023571879,0.01633903,0.018090433,0.031015338,-0.023682727,-0.06411462,-0.047731254,-0.0065622157,0.037511043,0.036579918,-0.025323281,0.038929902,0.07305453,0.0032977352,-0.07673469,-0.09134449,-0.016411083,0.027590128,0.06341628,0.059503336,0.012492597,-0.025395332,-0.02929719,-0.02031294,-0.01211017,-0.0027046972,0.004694423,0.0038907733,0.019060355,0.009111726,0.0005874957,-0.0040958426,-0.011439539,-0.004844068,-0.0021172015,-0.0058472445,-0.0019010473,0.003563771,0.003940655,0.00038796884,-0.0047332197,0.006163162,0.008008786,0.00048218985,-0.007604189,-0.009649339,-0.0013634333,0.0023056434,0.00033808715,0.00052098674,-0.0008313618,-0.0036524495,0.0022391344,0.005958093,0.009887663,0.0007759377,-0.012941532,-0.017314496,-0.008296991,0.0011417369,0.0068504214,0.015662856,0.01806272,0.0035305165,-0.01167232,-0.026919495,-0.024813378,0.004317539,0.014643053,0.015856842,0.012015949,-0.00043785054,-0.010253462,-0.01532477,-0.0117222015,-0.0076429863,0.005137816,0.015856842,0.009427642,-0.00058195327,-0.00455032,-0.0106802285,-0.0055479542,0.0010308886,-0.0007426832,0.004505981,0.0023887795,0.00070942874,-0.0009920917,-0.00025495095,-0.008391212,-0.007182966,-0.003979452,0.0025605944,0.016034199,0.00024940853,-0.0047941864,-0.011783168,-0.011151333,-0.005553497,0.0043119965,0.0098266965,0.009610542,0.0005542412,-0.0091449795,-0.009344507,-0.0025883063,-0.0020451501,-0.0032256837,0.0,0.009438728,0.010103817,-0.009610542,-0.014831495,0.00089787075,0.0011472793,-0.0025439672,0.0021892528,2.2169648e-05,-0.0017403174,0.006667522,0.012304155,-0.008169515,-0.016876645,-0.01976424,-0.004760932,0.014099896,0.020562349,0.019088067,0.009532949,-0.008280364,-0.018323215,-0.033587016,-0.034196682,-0.018489487,0.032944098,0.07443459,0.035510235,-0.030267112,-0.064574644,-0.038885564,-0.011677862,0.011938356,0.022452312,0.03037796,0.016327946,-0.0029485633,-0.011594726,-0.018400809,-0.013573367,-0.006224129,0.0063294345,0.006739573,-0.0027268666,0.0076762405,0.0072328476,0.002355525,-0.0023056434,-0.007897937,-0.007925649,-0.0035693133,-0.0013246365,-0.00031591748,0.001828996,0.004760932,0.007670698,0.0005043595,-0.0065012495,-0.011877389,-0.009616085,0.0006872591,0.012686581,0.006190874,0.0010419735,-0.00723839,-0.0150587335,-0.0053595123,0.0020728621,0.004478269,0.0045281504,0.0036746191,0.0010918552,-0.0051821554,-0.004195606,-0.0064014858,-0.006551131,-0.004422845,0.005908211,0.008762553,0.00082027697,0.00089787075,-0.0059913476,-0.005769651,-0.0045780325,-0.001385603,-0.0009810069,0.0044339295,-0.00048218985,-0.0030316995,-0.002233592,-0.003779925,0.002244677,0.005714227,-0.00019398442,-0.004971544,-0.009654881,-0.01461534,0.001385603,0.016732542,0.006983439,-0.0067063184,-0.009050759,-0.00629618,-0.00014964513,0.0009588373,-0.0025993912,-0.0012359578,0.0011916186,0.0006152077,-0.0003602568,-0.0010198038,-0.0014410272,-0.004805271,0.001169449,0.004384048,-0.0069446424,-0.0024663734,0.0022502192,-0.0010696856,0.0016848933,0.0031370053,-0.002865427,-0.0031259204,-0.0028986814,-0.0018955049,0.0012525851,0.0006872591,-0.002167083,0.0011195672,0.0007371408,0.0006928015,-0.003968367,-0.0052375793,-0.00084798905,0.0013301789,0.0024719157,0.0010641431,-0.0028931391,-0.0033919562,0.00049881707,-0.00084244664,-0.0016904357,-0.0028931391,0.000376884,0.0016072995,0.00039905368,0.0003214599,-0.003175802,-0.0029651904,-0.002920851,0.0010696856,0.0003713416,-0.00054869876,0.0033587017,-0.00033808715,-0.0027490363,-0.0038131794,-0.004855153,0.0047553894,0.0024996279,-0.0018456233,-0.0013578909,-0.0009699221,-0.0040293336,-0.0007315984,0.005775193,-0.0007205136,-0.0010364311,-0.0013412638,-0.00070942874,-0.002649273,-0.0035970255,-0.0013468062,0.0024719157,0.0036801617,0.0008757011,-0.0017181478,-0.002904224,-0.0029541056,0.0007703953,-0.002355525,-0.0033919562,0.0016571812,0.0042510303,0.0012692123,-0.0011916186,0.0014853664,-0.009377761,-0.00026049337,0.003724501,-0.0010253462,-0.00062629255,0.0028875966,-0.0021061166,0.0018899625,0.0009920917,-0.006068941,-0.00058195327,0.00034362954,-0.003092666,0.001224873,0.0017680294,0.00298736,0.0053484277,-0.006024602,-0.0076208166,-0.0038408916,0.000753768,0.0068947608,0.0023610676,0.003120378,-0.0006484622,-0.005780736,-0.005891584,-0.0027268666,0.0027989182,0.0057363966,0.006578843,-0.0034362955,-0.0063294345,-0.004106927,-0.0008369042,-0.002422034,0.002405407,0.008030955,0.002998445,-0.006224129,-0.007703953,-0.0009200404,0.00019398442,0.0019786411,0.0013080093,-0.0020396076,0.00035471437,0.0032478534,0.00034917195,-0.0014243999,0.000753768,-0.0021282863,-0.0003713416,-0.0033587017,-0.003242311,0.00076485286,0.003242311,0.0011639065,0.00487178,0.0032201414,0.004428387,-0.0033587017,-0.010125987,-0.028349437,-0.016937612,0.04810814,0.025966201,-0.010026223,-0.008812435,-0.009194861,-0.010741195,-0.0035416014,0.0060744835,0.0073603233,0.005969178,-0.0032367685,-0.002649273,-0.0024109492,0.001507536,0.0024331189,0.0018400808,-0.0034196682,-0.003874146,-0.00188442,-0.0020950318,0.0060744835,-0.0016627236,-0.0010419735,-0.0006706319,0.004910577,0.0072716447,-0.0004600202,-0.007914565,-0.008091922,-0.014449068,0.0060412292,0.022247242,0.0022003376,-0.0087847235,-0.008906656,0.0074268323,-0.006091111,0.006279553,0.009460897,-0.014183032,-0.01932085,-0.00031037506,0.0070832027,0.020806216,0.00411247,-0.016050825,-0.00044339296,0.0067174034,-0.0073270686,-0.020784045,0.0048884074,0.0188442,0.01392254,-0.003818722,-0.0025495095,-0.0051433584,-0.009366676,0.013035753,0.0030704963,-0.005797363,-0.0067839124,0.0054315636,0.00631835,-0.005620006,0.0020673196,-0.0008757011,-0.00021615408,-7.2051356e-05,0.0010807704,-0.0009588373,-0.0016738084,-0.0002272389,0.0017126054,0.0074600866,-0.0038630613,-0.0053207157,0.0014133151,0.0023222705,0.0027490363,0.0014576544,-0.0006429198,-0.0027046972,-0.0024608308,-0.000116390656,0.005015883,0.0029596481,0.00014964513,0.0022557618,-0.0018622505,-0.0036912465,0.0009643797,0.0009810069,0.0014243999,0.0027878333,0.0012581275,0.002056235,-0.0029707327,-0.0031536324,0.002311186,0.0015574178,0.0018955049,0.001762487,0.0011528217,-0.0021061166,-5.542412e-06,-0.0012082459,0.0013578909,0.000282663,0.004456099,0.0035028043,-0.0023998644,0.0018567081,-0.0023167282,-0.0013578909,-0.0021393711,0.0043230816,0.0040182485,0.0022003376,-0.0010641431,-0.0027102395,-0.00063183496,-0.0024109492,0.0038408916,0.0026437305,0.0021172015,0.0012747548,-0.0017846567,-0.0011916186,0.0013578909,0.0027157818,0.0008369042,-0.0009810069,-0.0010641431,-0.00024386613,0.0039905366,0.0025439672,0.0009588373,-0.0015019936,-0.0020118956,0.00017181477,0.0024109492,0.0016571812,-8.313618e-05,-0.00040459607,0.0038131794,0.0030704963,-0.004201148,0.00039351126,0.00071497116,0.0015851299,0.0029651904,0.0022834737,0.0027268666,-0.0011140248,-0.0024386614,-0.0060412292,-0.0029153088,-0.00039905368,0.007155254,0.0047553894,0.006861506,0.0025883063,0.0018567081,-0.0031702598,-0.007986615,-0.009061844,-0.0071497117,-0.0010142614,0.004600202,0.013545655,0.018439604,0.018101517,0.0031370053,-0.0018234536
0.00031877923,0.006586303,0.0049275705,-0.0021504092,-0.0029716708,-0.0020531544,-0.0028960283,-0.0030581194,-0.0043332363,-0.0034903625,0.0020315424,0.0007618283,-0.00035119746,0.0017505843,-0.002117991,-0.0038145448,-0.0037551112,-0.0029068345,-0.00019450937,-0.0021504092,-0.0027555493,0.001712763,0.0002431367,0.000572722,0.0014858354,-0.003139165,-0.009412092,-0.012027162,0.009271613,0.0074183713,-0.001999124,-0.003960427,-0.0030581194,-0.0016857479,-0.00026474887,-0.0021071848,-0.0037767235,-0.001556075,-0.0014858354,-0.00074561924,0.0023827397,0.00060514023,-0.0020153332,-0.0028149828,-0.0056785927,-0.0018100177,-0.00046466125,0.0016317174,-0.0015506719,-0.002696116,-0.00063755846,0.0002431367,-0.0007294101,-0.0021342,-0.001853242,-0.0035173777,-0.0029284465,-0.0018370328,0.001847839,0.0019072724,0.0001999124,-0.0018694511,-0.004176548,-0.004068488,0.0003295853,-0.0040252632,-0.00045385517,0.0034687503,-0.00089150126,-0.0015290597,-3.241823e-05,-0.0032634349,-0.0028798191,-0.0012751169,-0.0046250005,-0.0006213494,0.0037713205,0.00088609825,-0.00094553165,-0.0045709703,-0.005014019,5.9433416e-05,0.00083206786,0.0004862734,-0.0007294101,-0.0021342,-0.001853242,-0.0035173777,-0.0029284465,-0.0018370328,0.001847839,0.0019072724,0.0001999124,-0.0018694511,-0.004176548,-0.004068488,0.0003295853,-0.0040252632,-0.00045385517,0.0034687503,-0.00089150126,-0.0015290597,-3.241823e-05,-0.0032634349,-0.0028798191,-0.0012751169,-0.0046250005,-0.0006213494,0.0037713205,0.00088609825,-0.00094553165,-0.0045709703,-0.005014019,5.9433416e-05,0.00083206786,0.0004862734,-0.0039388146,-0.0035768112,0.0010265772,0.0019126754,5.403038e-05,-0.0039442177,-0.0021017818,-0.001426402,-0.0019126754,-0.0039009934,0.0044629094,0.003139165,-0.004803301,-0.0025178157,-0.0015506719,-0.0006699767,-0.0021558122,-0.00046466125,0.0013399534,7.564253e-05,-0.0017721965,-0.0026366825,-0.003009492,-0.00069158885,0.0024691883,-0.00044304912,-0.0008698891,-0.0010914137,-0.0024583822,-0.0021990365,-0.00037821266,0.00074561924,-0.000286361,-0.0036308414,0.0006807828,0.0012426988,-0.0005132886,-0.00060514023,-0.0029662678,-0.0030797317,-0.000707798,0.000988756,0.00075102225,0.00037821266,-0.0022368578,-0.0010319803,-0.0025232187,0.000713201,-0.0007672314,-0.0013183412,-0.0008158587,-0.0012372957,-0.00018910633,0.00023233063,0.0009725468,-0.0030311043,-0.0037389023,-0.0032364198,0.006116239,0.0007564253,-0.0034471382,-0.0022422608,-0.001420999,-0.0012156835,-0.000286361,-0.0036308414,0.0006807828,0.0012426988,-0.0005132886,-0.00060514023,-0.0029662678,-0.0030797317,-0.000707798,0.000988756,0.00075102225,0.00037821266,-0.0022368578,-0.0010319803,-0.0025232187,0.000713201,-0.0007672314,-0.0013183412,-0.0008158587,-0.0012372957,-0.00018910633,0.00023233063,0.0009725468,-0.0030311043,-0.0037389023,-0.0032364198,0.006116239,0.0007564253,-0.0034471382,-0.0022422608,-0.001420999,-0.0012156835,-0.0009833529,0.0023125003,-0.0011130258,-0.0004376461,-0.00051869167,-0.0009563377,-0.00042684,-0.0011184289,-0.0022098424,-0.0017775994,-0.00069158885,-0.0018640481,0.0041819513,0.0029986862,-0.0029284465,-0.0023016941,-0.0033120622,-0.0042684,0.0011022197,0.0026096674,0.0010373833,0.0002539428,-0.0001999124,-0.0026420855,-0.0018262268,-0.0015452688,0.0010535924,-0.0012643109,-0.001718166,-0.00025934583,0.0027609523,0.0009185164,-0.0009833529,0.0023125003,-0.0011130258,-0.0004376461,-0.00051869167,-0.0009563377,-0.00042684,-0.0011184289,-0.0022098424,-0.0017775994,-0.00069158885,-0.0018640481,0.0041819513,0.0029986862,-0.0029284465,-0.0023016941,-0.0033120622,-0.0042684,0.0011022197,0.0026096674,0.0010373833,0.0002539428,-0.0001999124,-0.0026420855,-0.0018262268,-0.0015452688,0.0010535924,-0.0012643109,-0.001718166,-0.00025934583,0.0027609523,0.0009185164,-0.0032202106,-0.0015938962,-0.0026366825,-0.0013183412,0.0020207362,0.001134638,-0.0004700643,-0.0019396907,-0.002712325,-0.0024637852,0.004851928,0.00011346379,-0.0039442177,9.1851645e-05,-0.00043224305,-0.0020369452,-0.0011292349,0.0019558996,0.0008752922,0.0010211741,-0.0014696263,-0.0047654794,0.0008698891,0.0012210866,-0.0006807828,0.00033498835,-0.0014534172,-0.0009779498,0.0007240071,0.00016749417,-0.0012210866,-0.0018100177,-0.0032202106,-0.0015938962,-0.0026366825,-0.0013183412,0.0020207362,0.001134638,-0.0004700643,-0.0019396907,-0.002712325,-0.0024637852,0.004851928,0.00011346379,-0.0039442177,9.1851645e-05,-0.00043224305,-0.0020369452,-0.0011292349,0.0019558996,0.0008752922,0.0010211741,-0.0014696263,-0.0047654794,0.0008698891,0.0012210866,-0.0006807828,0.00033498835,-0.0014534172,-0.0009779498,0.0007240071,0.00016749417,-0.0012210866,-0.0018100177,-0.00088609825,9.7254684e-05,0.00067537976,-0.00049167644,-0.0006105433,0.00012967292,-0.0018802572,-0.001853242,0.0014101929,0.00051869167,6.483646e-05,-0.001145444,-0.0014426111,-0.0007780375,-0.00048087037,0.00016749417,0.00027015188,-0.00042684,-0.0006267524,0.0010535924,-0.0009833529,-0.0018370328,-4.8627342e-05,-0.0010427863,-0.00088609825,-0.0009293225,0.002420561,0.0036794688,-0.0035281838,-0.002701519,-0.0005024825,-0.0005240947,-2.701519e-05,0.000718604,0.0012751169,-0.00027015188,-0.002269276,-0.0016479265,0.0009671438,0.00048087037,0.0007780375,-0.00017830025,-0.0028041766,-0.0032526287,0.0032850471,0.0027339372,-0.00041603393,-0.0024475763,-0.0018856602,-0.0018154207,0.0017938085,0.0011778623,0.001561478,-0.0008806952,-0.003279644,-8.644861e-05,-0.00016749417,0.0003403914,-3.7821264e-05,0.00069158885,-0.00022152456,-0.0016803448,0.0015290597,-0.0006645737,-2.701519e-05,0.000718604,0.0012751169,-0.00027015188,-0.002269276,-0.0016479265,0.0009671438,0.00048087037,0.0007780375,-0.00017830025,-0.0028041766,-0.0032526287,0.0032850471,0.0027339372,-0.00041603393,-0.0024475763,-0.0018856602,-0.0018154207,0.0017938085,0.0011778623,0.001561478,-0.0008806952,-0.003279644,-8.644861e-05,-0.00016749417,0.0003403914,-3.7821264e-05,0.00069158885,-0.00022152456,-0.0016803448,0.0015290597,-0.0006645737,-0.0018694511,-0.00064296153,0.00070239493,0.0006105433,-0.00036740658,0.0006807828,-0.0010427863,9.7254684e-05,-0.0012967291,-0.0002431367,0.00018910633,-0.0009671438,0.0010643984,-0.0010752046,-0.00078884355,0.0015182537,-0.00083206786,0.00047546733,-0.0018100177,-0.002112588,0.001140041,0.0032256136,0.00012426988,-0.00022692759,-0.004111712,-0.005597547,0.0027717585,0.0031067468,0.0013075352,0.0048303157,0.00029176404,-0.007602074,-0.0018694511,-0.00064296153,0.00070239493,0.0006105433,-0.00036740658,0.0006807828,-0.0010427863,9.7254684e-05,-0.0012967291,-0.0002431367,0.00018910633,-0.0009671438,0.0010643984,-0.0010752046,-0.00078884355,0.0015182537,-0.00083206786,0.00047546733,-0.0018100177,-0.002112588,0.001140041,0.0032256136,0.00012426988,-0.00022692759,-0.004111712,-0.005597547,0.0027717585,0.0031067468,0.0013075352,0.0048303157,0.00029176404,-0.007602074,-0.0051544984,-0.0017559873,0.007715538,0.0020855726,-0.005716414,0.00030257012,0.005111274,0.0011670562,-0.0025178157,-0.005440859,-0.0028203859,0.0025178157,0.0025934582,-0.0010265772,0.005262559,-7.564253e-05,-0.003987442,0.0015236567,-0.0039226054,-0.0013831777,-0.00049167644,0.0030148951,0.0023016941,-0.001977512,0.0009131134,0.0014858354,-0.0019234815,-0.0021071848,-0.00064296153,-0.0004970795,9.7254684e-05,0.0028852222,0.001140041,-0.0016911508,-0.00069158885,-0.0010698015,-0.000567319,7.023949e-05,-0.0011184289,0.0025772492,0.0012318926,0.00033498835,0.00015128506,-0.0018262268,-0.0020963787,-0.00089690427,0.0018154207,0.002847401,0.0013507595,-0.00054570683,-0.0027663554,-0.0018856602,0.00053490076,-0.0015398659,0.0030905376,0.004689837,-0.0029446557,-0.003139165,-0.00044304912,1.0806076e-05,-0.00016749417,0.0016317174,0.0020477513,-0.000999562,0.001140041,-0.0016911508,-0.00069158885,-0.0010698015,-0.000567319,7.023949e-05,-0.0011184289,0.0025772492,0.0012318926,0.00033498835,0.00015128506,-0.0018262268,-0.0020963787,-0.00089690427,0.0018154207,0.002847401,0.0013507595,-0.00054570683,-0.0027663554,-0.0018856602,0.00053490076,-0.0015398659,0.0030905376,0.004689837,-0.0029446557,-0.003139165,-0.00044304912,1.0806076e-05,-0.00016749417,0.0016317174,0.0020477513,-0.000999562,-0.0023016941,-2.1612152e-05,-0.0014642233,0.00093472557,0.00054030376,0.001712763,0.0014426111,0.00021612152,-0.001701957,-0.0019126754,-0.0025178157,-0.0007726344,-0.00052949775,0.0010265772,0.0066133183,0.0068834703,0.0015128506,-0.00542465,-0.011978535,-0.0105143115,-0.0005078856,0.0013777746,0.016198307,0.020871935,0.0077533596,-0.018316299,-0.027587911,-0.010103681,0.010454878,0.0063647786,0.009606602,0.011281543,0.00036740658,-0.005981163,-0.0051815133,-0.004527746,-0.006380988,-0.0011940714,0.002431367,0.011740802,0.0047762855,-0.0029068345,-0.003430929,-0.0055056955,-0.0055056955,0.0012967291,0.005689399,0.0017830025,0.0007726344,-0.0033066592,-0.0024529793,-0.0006969919,0.003706484,0.0028203859,-0.0014101929,-0.0013615655,-0.00094553165,-0.00038901874,0.0012481017,0.0013291474,-0.0010319803,-0.0012372957,0.00021612152,0.00200993,0.00036740658,-0.005981163,-0.0051815133,-0.004527746,-0.006380988,-0.0011940714,0.002431367,0.011740802,0.0047762855,-0.0029068345,-0.003430929,-0.0055056955,-0.0055056955,0.0012967291,0.005689399,0.0017830025,0.0007726344,-0.0033066592,-0.0024529793,-0.0006969919,0.003706484,0.0028203859,-0.0014101929,-0.0013615655,-0.00094553165,-0.00038901874,0.0012481017,0.0013291474,-0.0010319803,-0.0012372957,0.00021612152,0.00200993,0.00010265772,-0.0020855726,0.0024908006,0.0028203859,-0.004425088,-0.0031769862,0.0018694511,0.0018262268,0.00043224305,0.0012481017,0.0007402162,-0.001415596,-6.483646e-05,-0.0014047899,-0.0014480142,0.00128052,0.0025718461,0.0023233064,-0.00080505264,-0.002701519,-0.00016749417,8.104557e-05,-0.0010157712,-0.0008698891,0.0029014314,0.0041819513,-0.00011346379,-0.001572284,-0.0013399534,0.0010860106,-0.0015992993,-0.0033228684,0.00010265772,-0.0020855726,0.0024908006,0.0028203859,-0.004425088,-0.0031769862,0.0018694511,0.0018262268,0.00043224305,0.0012481017,0.0007402162,-0.001415596,-6.483646e-05,-0.0014047899,-0.0014480142,0.00128052,0.0025718461,0.0023233064,-0.00080505264,-0.002701519,-0.00016749417,8.104557e-05,-0.0010157712,-0.0008698891,0.0029014314,0.0041819513,-0.00011346379,-0.001572284,-0.0013399534,0.0010860106,-0.0015992993,-0.0033228684,-0.0021558122,0.0007618283,0.0054948893,0.008866386,0.00018370329,-0.005294977,-0.009174358,-0.0036254385,0.004814107,0.0021558122,0.0029986862,-0.0015236567,-0.00088609825,0.003295853,0.00864486,-0.0009185164,-0.010265772,-0.0035173777,-9.7254684e-05,0.0037713205,0.0047816886,0.0031823893,0.002723131,-0.0007618283,-0.002696116,-0.0017451813,-0.0020855726,-0.0033282714,0.0012697139,0.004111712,0.003420123,0.0022584698,-0.000988756,-0.0007834405,-0.0004700643,-0.00042684,0.00063755846,-0.0033066592
0.016870163,0.02470898,0.02002111,-0.00085841474,-0.04271513,-0.02421552,0.011442103,0.025151039,0.018021569,0.0004986002,-0.018987928,-0.015723897,-0.003557024,0.006543485,0.013477625,0.010650511,-0.0010074808,-0.00965331,-0.010686493,-0.007936481,-0.0015729036,0.00033411352,0.007494423,0.0073504974,0.0024004772,0.0016859883,0.00691358,-0.0031766486,-0.024369726,-0.009535085,0.006548625,0.014896323,0.009221533,-0.0005243012,-0.0018504749,-0.0033873972,0.0006990683,0.0034387992,-0.0061631096,-0.0120743485,-0.004400018,0.0007247693,0.0133337,0.015307539,3.5981455e-05,-0.003880857,-0.009565927,-0.0085635865,-0.0024621596,-0.0003289733,0.0027037493,0.004256092,-0.0015729036,0.00033411352,0.007494423,0.0073504974,0.0024004772,0.0016859883,0.00691358,-0.0031766486,-0.024369726,-0.009535085,0.006548625,0.014896323,0.009221533,-0.0005243012,-0.0018504749,-0.0033873972,0.0006990683,0.0034387992,-0.0061631096,-0.0120743485,-0.004400018,0.0007247693,0.0133337,0.015307539,3.5981455e-05,-0.003880857,-0.009565927,-0.0085635865,-0.0024621596,-0.0003289733,0.0027037493,0.004256092,0.007114048,0.0021383266,-0.0024364586,-0.0055411444,-0.008481343,-0.0023490752,0.0038962776,0.0035159022,7.710312e-05,-9.766395e-05,0.0013467345,-0.0010331818,-0.00039579603,-0.0042920737,-0.0036701085,0.0016243057,0.003557024,0.0027808526,-0.0019070172,-0.0039425394,-0.00013364542,0.0003752352,-0.0010948643,0.00024673,0.002200009,-0.0011565468,-0.0013415943,0.0005602827,-0.00098692,-0.0021434668,0.0023850566,0.0013929964,-0.0007504704,0.00033925372,-0.0026472071,-0.0010486024,0.0005140208,0.00030841248,-0.000889256,0.0030275825,0.0036958095,-0.0025752443,-0.0030738444,-0.0072785346,-0.0015163614,0.0027397308,0.010922942,0.009129009,-0.007993024,-0.0076743304,-0.005972922,0.00043177747,0.002667768,0.0030224423,0.0041070264,0.0018196336,-0.0007093487,-0.0012028087,-0.0054794615,-0.0041430076,0.0010434622,0.0032331909,0.004641608,0.0016088851,-0.0007504704,0.00033925372,-0.0026472071,-0.0010486024,0.0005140208,0.00030841248,-0.000889256,0.0030275825,0.0036958095,-0.0025752443,-0.0030738444,-0.0072785346,-0.0015163614,0.0027397308,0.010922942,0.009129009,-0.007993024,-0.0076743304,-0.005972922,0.00043177747,0.002667768,0.0030224423,0.0041070264,0.0018196336,-0.0007093487,-0.0012028087,-0.0054794615,-0.0041430076,0.0010434622,0.0032331909,0.004641608,0.0016088851,-0.002102345,-0.0028836566,-7.196291e-05,-0.000519161,0.0003289733,0.0004471981,0.001655147,0.0007144889,-0.0014238376,-0.00015934645,-0.00017476708,-5.140208e-05,-0.00024158978,0.00030841248,0.002498141,0.0007299095,-0.0013570149,-0.0024056174,-0.00247244,-0.00086355495,0.0061631096,0.0015831841,-0.002148607,0.0013467345,-0.0027140297,-0.0027140297,-3.5981455e-05,0.0023182337,0.0032845929,0.00021074853,-0.0023130935,-0.0016911285,0.0017322501,0.002842535,-0.00068364764,-0.0034953414,-0.0010897241,-0.00014906604,0.0029710403,0.0017990728,-0.00042149707,-1.5420625e-05,-0.00011308458,-0.0011154251,-0.0012336499,-0.0005140208,0.0014649592,0.00033925372,4.6261874e-05,0.001135986,0.0021691679,0.00079159206,-0.0014238376,-0.0038705766,-0.0042663724,0.00013364542,0.0061374083,0.0042149704,0.0011462664,-0.0023901968,-0.005839276,-0.0021588875,0.0007607508,0.0060397442,0.0017322501,0.002842535,-0.00068364764,-0.0034953414,-0.0010897241,-0.00014906604,0.0029710403,0.0017990728,-0.00042149707,-1.5420625e-05,-0.00011308458,-0.0011154251,-0.0012336499,-0.0005140208,0.0014649592,0.00033925372,4.6261874e-05,0.001135986,0.0021691679,0.00079159206,-0.0014238376,-0.0038705766,-0.0042663724,0.00013364542,0.0061374083,0.0042149704,0.0011462664,-0.0023901968,-0.005839276,-0.0021588875,0.0007607508,0.0060397442,0.0011514066,-0.002595805,0.00061168475,-0.001829914,0.0012233695,0.00033925372,0.0014958006,0.0014855202,-0.00039579603,-0.0016088851,-0.00197384,-0.002621506,-0.0014289778,0.01112341,0.0034130982,-0.005160769,-0.0007042085,0.0001285052,-0.0018813162,7.710312e-05,-0.0019327182,-0.00053458166,0.0037266507,0.000642526,0.003161228,-0.0006528064,-0.0012799118,-0.003628987,0.00079159206,0.0012953324,0.0012747716,-0.0005602827,0.0011514066,-0.002595805,0.00061168475,-0.001829914,0.0012233695,0.00033925372,0.0014958006,0.0014855202,-0.00039579603,-0.0016088851,-0.00197384,-0.002621506,-0.0014289778,0.01112341,0.0034130982,-0.005160769,-0.0007042085,0.0001285052,-0.0018813162,7.710312e-05,-0.0019327182,-0.00053458166,0.0037266507,0.000642526,0.003161228,-0.0006528064,-0.0012799118,-0.003628987,0.00079159206,0.0012953324,0.0012747716,-0.0005602827,0.0009098168,-0.0003803754,-0.001135986,-0.0009663591,0.0013210335,0.007843957,0.0020715038,0.0010229014,-0.0059318,-0.0092061125,-0.009077608,-0.001012621,0.015492587,0.018237459,0.0031201062,-0.012305658,-0.013133232,-0.008676671,-0.0017116893,0.005654229,0.0077976957,0.007139749,0.0027037493,-0.0020817842,-0.0047598328,-0.0028887969,-0.003628987,-0.0017322501,0.0021434668,0.0032229105,0.0046981503,0.0016911285,0.0009098168,-0.0003803754,-0.001135986,-0.0009663591,0.0013210335,0.007843957,0.0020715038,0.0010229014,-0.0059318,-0.0092061125,-0.009077608,-0.001012621,0.015492587,0.018237459,0.0031201062,-0.012305658,-0.013133232,-0.008676671,-0.0017116893,0.005654229,0.0077976957,0.007139749,0.0027037493,-0.0020817842,-0.0047598328,-0.0028887969,-0.003628987,-0.0017322501,0.0021434668,0.0032229105,0.0046981503,0.0016911285,-0.0004986002,-0.001434118,-0.0018093532,-2.570104e-05,-0.0015883243,-0.0010691633,0.0012901922,0.0022102895,0.0022205699,0.0015009408,-0.0019635595,-0.0013878562,0.00043177747,-0.00068364764,0.00030841248,-0.00067336723,-0.00035467435,0.001310753,0.0012439303,0.0025187018,0.00074019,-0.0011668272,-0.0035416032,-0.0019584193,0.00084813434,-0.00086355495,0.005248152,0.0044617006,-0.0023747762,-0.0021948689,-0.002323374,-0.0005757033,0.0018196336,0.0011925283,0.0001901877,-0.0001953279,0.0014958006,-0.00031355268,0.00079159206,9.766395e-05,-0.00079673226,-0.00098692,-0.0009817798,0.0011411262,0.0019789801,0.0023387948,-0.00010794437,-0.0010023406,-0.0015729036,5.140208e-05,0.0013364541,0.0011102849,0.00046261871,0.00011822479,-0.00081729307,-0.00086355495,0.00062710536,0.0017887924,0.0010023406,0.00085841474,-0.0019635595,-0.002693469,0.0030584238,0.0016911285,0.0018196336,0.0011925283,0.0001901877,-0.0001953279,0.0014958006,-0.00031355268,0.00079159206,9.766395e-05,-0.00079673226,-0.00098692,-0.0009817798,0.0011411262,0.0019789801,0.0023387948,-0.00010794437,-0.0010023406,-0.0015729036,5.140208e-05,0.0013364541,0.0011102849,0.00046261871,0.00011822479,-0.00081729307,-0.00086355495,0.00062710536,0.0017887924,0.0010023406,0.00085841474,-0.0019635595,-0.002693469,0.0030584238,0.0016911285,0.00035981456,-0.00048317955,0.00010794437,-0.00024158978,-0.0020201018,0.002050943,0.0021126254,0.0025341224,-0.0003906558,-0.0029093577,-0.0017990728,-0.0011565468,0.0007093487,0.0053560967,-0.00031355268,-0.0008943962,0.00080187246,-0.00016448666,-0.0012542107,-0.0026009453,0.0030584238,0.0011668272,0.0010331818,0.0005140208,-0.00080187246,-0.00027757123,0.00058598374,0.001064023,-0.00014392582,-0.00020560832,0.0007350497,0.0,0.00035981456,-0.00048317955,0.00010794437,-0.00024158978,-0.0020201018,0.002050943,0.0021126254,0.0025341224,-0.0003906558,-0.0029093577,-0.0017990728,-0.0011565468,0.0007093487,0.0053560967,-0.00031355268,-0.0008943962,0.00080187246,-0.00016448666,-0.0012542107,-0.0026009453,0.0030584238,0.0011668272,0.0010331818,0.0005140208,-0.00080187246,-0.00027757123,0.00058598374,0.001064023,-0.00014392582,-0.00020560832,0.0007350497,0.0,0.0005037404,0.0011462664,0.00020046812,-0.00011822479,-0.00049346,0.0005140208,0.00082243327,0.00067850744,0.0003855156,-0.0001285052,0.00031355268,-0.00040607643,0.00029813207,0.0010794437,0.0004523383,0.00066822703,0.0006476662,-0.0003238331,0.0005140208,0.0001953279,0.00055514247,0.00011308458,-0.0007093487,0.00033925372,0.0016602871,0.00063224556,0.00085327454,-0.00040607643,-0.0004883198,1.5420625e-05,-9.766395e-05,-0.00011822479,0.0024056174,0.004965441,-0.0018453347,-0.0042817933,-0.00022616916,0.001804213,0.0027705722,0.0037009497,-0.0014906604,-0.0024775802,0.0010588828,-0.0001285052,0.00047289915,0.0007556106,0.0007144889,0.00021588874,0.0010280416,0.00022102894,0.0010588828,-9.252375e-05,-7.710312e-05,-0.00059112394,-0.00027243103,0.0022668317,0.0021383266,0.00046775892,-0.00021588874,-0.0012130891,0.00026729083,0.0009046766,0.002200009,0.0012593509,0.0024056174,0.004965441,-0.0018453347,-0.0042817933,-0.00022616916,0.001804213,0.0027705722,0.0037009497,-0.0014906604,-0.0024775802,0.0010588828,-0.0001285052,0.00047289915,0.0007556106,0.0007144889,0.00021588874,0.0010280416,0.00022102894,0.0010588828,-9.252375e-05,-7.710312e-05,-0.00059112394,-0.00027243103,0.0022668317,0.0021383266,0.00046775892,-0.00021588874,-0.0012130891,0.00026729083,0.0009046766,0.002200009,0.0012593509,-0.0018556151,-0.0005243012,0.0005088806,0.0021691679,0.0020715038,-0.000889256,-0.00023130936,-0.000123365,4.6261874e-05,0.0017528109,0.00014392582,0.0009406581,0.0010537426,-2.570104e-05,0.00020560832,0.0010434622,-0.00054486206,-0.00059112394,0.00053972186,0.0026523473,-0.00030841248,0.0004883198,0.00062196516,-0.0009766396,0.0008378539,-0.0005294414,0.0012747716,0.0009406581,0.0016705676,0.0008943962,-0.00042149707,-0.0014289778,0.0005705631,0.0009920602,0.0007247693,0.00247244,0.0009457983,-0.0006528064,-0.0007247693,0.00027757123,0.0013004726,0.0003752352,0.000123365,0.00033411352,0.000889256,0.0022668317,0.0009406581,0.0011565468,-0.0027140297,-0.0023490752,0.0023130935,0.0016037449,0.0023644958,5.140208e-06,-0.00028271144,0.00084299414,-0.00043177747,0.0001901877,0.00079159206,0.0011205653,-0.0005243012,0.00041121664,0.00066822703,0.00017476708,0.0005705631,0.0009920602,0.0007247693,0.00247244,0.0009457983,-0.0006528064,-0.0007247693,0.00027757123,0.0013004726,0.0003752352,0.000123365,0.00033411352,0.000889256,0.0022668317,0.0009406581,0.0011565468,-0.0027140297,-0.0023490752,0.0023130935,0.0016037449,0.0023644958,5.140208e-06,-0.00028271144,0.00084299414,-0.00043177747,0.0001901877,0.00079159206,0.0011205653,-0.0005243012,0.00041121664,0.00066822703,0.00017476708,0.0019944008,0.0012130891,-0.00017990728,-0.00016962686,-0.00053972186,0.00023130936,-0.00087897555,0.0011051447,0.0056439484,3.084125e-05,-0.001012621,0.0005140208,-0.0008275735,-0.0007144889,0.0009457983,0.0018967368,0.0016859883,0.0015420624,-0.0006939281,-0.0007504704,-0.00046261871,0.0010691633,0.0002518702,0.0011514066,0.0012542107,-0.0007144889,0.0013672953,0.00093551783,0.0003289733,-0.0004883198,0.00020560832,0.00058598374,0.0019944008,0.0012130891,-0.00017990728,-0.00016962686,-0.00053972186,0.00023130936
-0.00040518976,-0.00082010403,0.00039222368,0.00058347324,0.00055429956,-0.0002495969,6.483036e-05,-0.00038249913,-0.0008654853,-0.0002495969,0.0008622438,0.001163705,-0.0008492777,-0.00031442725,3.56567e-05,-0.00060292234,0.0006580282,-6.483036e-05,-0.0004862277,0.0013873697,0.002709909,-0.0002528384,8.752099e-05,-0.003666157,-0.005588377,-0.008120002,-0.005568928,-0.0032901408,0.0047844807,0.0058152834,0.012369633,0.008700234,0.0031637216,-0.005568928,-0.017630616,-0.026447546,-0.02338431,-0.010706734,0.0063728243,0.03281713,0.041381218,0.040609736,0.011283725,-0.010499277,-0.061575875,-0.06541707,-0.07508004,-0.015361554,0.014603038,0.10372858,0.10372858,0.10372858,0.002709909,-0.0002528384,8.752099e-05,-0.003666157,-0.005588377,-0.008120002,-0.005568928,-0.0032901408,0.0047844807,0.0058152834,0.012369633,0.008700234,0.0031637216,-0.005568928,-0.017630616,-0.026447546,-0.02338431,-0.010706734,0.0063728243,0.03281713,0.041381218,0.040609736,0.011283725,-0.010499277,-0.061575875,-0.06541707,-0.07508004,-0.015361554,0.014603038,0.10372858,0.10372858,0.10372858,0.018398857,-0.039877154,-0.10372858,-0.10372858,-0.10372858,-0.071900114,0.10372858,0.10372858,0.10372858,-0.10372858,-0.10372858,-0.10372858,0.10372858,0.10372858,0.10372858,0.10372858,0.016496085,-0.03903112,-0.10372858,-0.10372858,-0.09660696,-0.0065964893,0.015983926,0.06827609,0.072208054,0.0655208,0.0026159051,-0.022548,-0.05594536,-0.04452225,-0.025277358,0.004350117,0.010625696,0.022065014,0.015403694,0.010875293,0.0057990756,-0.0027941884,-0.010120019,-0.011948235,-0.008389048,-0.00719617,-0.004431155,0.0042625964,0.0074554915,0.007727779,0.005795834,-0.0029465398,-0.0074554915,-0.0066191796,-0.002058364,-0.0027293582,0.000901142,-0.0031896536,-0.0022301644,0.0016628987,-0.00043760493,-0.0019351862,-0.005163738,-0.0058606644,-0.00065478665,0.00073258305,-0.00042788038,-0.0009205911,0.010625696,0.022065014,0.015403694,0.010875293,0.0057990756,-0.0027941884,-0.010120019,-0.011948235,-0.008389048,-0.00719617,-0.004431155,0.0042625964,0.0074554915,0.007727779,0.005795834,-0.0029465398,-0.0074554915,-0.0066191796,-0.002058364,-0.0027293582,0.000901142,-0.0031896536,-0.0022301644,0.0016628987,-0.00043760493,-0.0019351862,-0.005163738,-0.0058606644,-0.00065478665,0.00073258305,-0.00042788038,-0.0009205911,-0.001082667,-0.0022204397,-0.003403594,-0.0028622604,-0.0030308194,-0.0005802317,-0.00035332545,-0.0015786192,0.00023663082,-0.0010437688,-0.001533238,-0.0021880246,-0.004094037,-0.0049335905,-0.0027488072,0.0017569028,0.0017860765,0.0034327675,0.00042788038,-0.0051767044,-0.0050211116,-0.0030567516,-0.004645095,-0.004350117,-0.0004700201,0.0030891667,0.009218877,0.002641837,-0.008654853,-0.012210798,-0.010129744,-0.000625613,0.0053031235,0.0034262845,0.0027974301,-0.0011604634,-0.0052480176,-0.007688881,-0.00067423575,-0.00015235135,0.00081362104,0.00042139733,-0.0014846153,-0.0035818773,-0.0017795934,-0.00035656698,-0.002145885,7.455491e-05,-0.000269046,-0.001001629,-0.0019254617,-0.0021491265,0.0009692139,-0.0011507389,-0.004541367,-0.005559203,-0.0014554416,0.004897934,0.002521901,0.0039222366,-0.003497598,-0.008278837,-0.0032123444,-0.0012901241,0.0053031235,0.0034262845,0.0027974301,-0.0011604634,-0.0052480176,-0.007688881,-0.00067423575,-0.00015235135,0.00081362104,0.00042139733,-0.0014846153,-0.0035818773,-0.0017795934,-0.00035656698,-0.002145885,7.455491e-05,-0.000269046,-0.001001629,-0.0019254617,-0.0021491265,0.0009692139,-0.0011507389,-0.004541367,-0.005559203,-0.0014554416,0.004897934,0.002521901,0.0039222366,-0.003497598,-0.008278837,-0.0032123444,-0.0012901241,-0.00080065493,0.00030794422,0.0012058447,-0.0024700367,0.0022917532,0.0022625795,-0.0036499493,-0.006719667,-0.0041199694,-0.001990292,0.0022560966,0.0046969596,0.0005705072,-0.0037374704,-0.004022724,-0.004920624,-6.158884e-05,0.00064182054,0.0004700201,0.0016369666,0.00074554916,-0.0015753778,-0.002972472,-0.0044117062,-0.0032706917,-0.0039870674,-0.002097262,0.009027627,0.0058865966,-0.0025543163,-0.0074295592,-0.0074392837,-0.00080065493,0.00030794422,0.0012058447,-0.0024700367,0.0022917532,0.0022625795,-0.0036499493,-0.006719667,-0.0041199694,-0.001990292,0.0022560966,0.0046969596,0.0005705072,-0.0037374704,-0.004022724,-0.004920624,-6.158884e-05,0.00064182054,0.0004700201,0.0016369666,0.00074554916,-0.0015753778,-0.002972472,-0.0044117062,-0.0032706917,-0.0039870674,-0.002097262,0.009027627,0.0058865966,-0.0025543163,-0.0074295592,-0.0074392837,-0.007050302,-0.0017601443,0.005448992,0.00527395,0.0017601443,-0.0014068189,-0.004282045,-0.005367954,-0.0014165434,-0.0006872018,1.2966072e-05,-0.00018800804,0.000113453134,-0.0010340442,0.00015559286,0.00020745715,-0.0015559286,-0.0017309706,-0.002165334,-0.001990292,-0.00072285853,0.000625613,-0.0006450621,0.00017828349,0.0015721362,-0.003591602,-0.0017342122,0.00013614376,-0.0005186429,-0.00085576077,-0.001001629,-0.0014003358,0.00053485046,0.00054781657,-0.00082010403,-0.0011021161,-0.0036888474,-0.0026515618,0.0019124956,0.0012188108,-0.0004700201,-0.001076184,-0.0020162242,-0.0025316256,-0.00017504198,0.00054781657,-0.0003598085,-0.00044084646,-0.0012350184,-0.0022625795,0.000269046,0.00055105804,-0.0017406952,-0.00056726567,-0.00031766878,-0.0011280483,-0.00033711788,-0.0015008228,-0.00058347324,0.0006288545,-0.0016726233,-0.001620759,-0.00044084646,-0.00010048706,0.00053485046,0.00054781657,-0.00082010403,-0.0011021161,-0.0036888474,-0.0026515618,0.0019124956,0.0012188108,-0.0004700201,-0.001076184,-0.0020162242,-0.0025316256,-0.00017504198,0.00054781657,-0.0003598085,-0.00044084646,-0.0012350184,-0.0022625795,0.000269046,0.00055105804,-0.0017406952,-0.00056726567,-0.00031766878,-0.0011280483,-0.00033711788,-0.0015008228,-0.00058347324,0.0006288545,-0.0016726233,-0.001620759,-0.00044084646,-0.00010048706,0.0003436009,-9.724554e-06,-0.0026807354,0.0006872018,-0.0021231943,-0.0021620926,-0.00017828349,-0.0015624117,0.00061588845,-0.000625613,0.0018800804,0.0010923916,-0.0017893179,-0.0033031069,-0.0040972787,-0.0029206078,0.003241518,0.002353342,0.00081686256,0.00081686256,-0.0015948268,-0.0031831707,-0.0028881927,-0.0009465233,-0.00012317768,-0.00096273085,0.0005802317,0.0023079608,0.0028752265,-0.00074554916,-0.003497598,-0.006055156,0.0003436009,-9.724554e-06,-0.0026807354,0.0006872018,-0.0021231943,-0.0021620926,-0.00017828349,-0.0015624117,0.00061588845,-0.000625613,0.0018800804,0.0010923916,-0.0017893179,-0.0033031069,-0.0040972787,-0.0029206078,0.003241518,0.002353342,0.00081686256,0.00081686256,-0.0015948268,-0.0031831707,-0.0028881927,-0.0009465233,-0.00012317768,-0.00096273085,0.0005802317,0.0023079608,0.0028752265,-0.00074554916,-0.003497598,-0.006055156,-0.0042463886,0.0019384278,0.0023922403,-5.5105807e-05,0.0019870505,0.0027941884,-0.0022852703,-0.0047585485,-0.0032253105,0.0019351862,0.0011863956,-0.0008590023,-0.0019254617,-0.00025607992,0.0019805676,0.0032512425,-0.000538092,-0.0055397544,-0.0024992104,-0.00083307014,-0.00055105804,0.0007747228,0.0018411822,0.0010210782,-0.0004635371,-0.0012415014,-0.00033387635,-0.0011150822,-0.0020745716,-0.0017050385,-0.0008590023,0.00063533755,-0.0042463886,0.0019384278,0.0023922403,-5.5105807e-05,0.0019870505,0.0027941884,-0.0022852703,-0.0047585485,-0.0032253105,0.0019351862,0.0011863956,-0.0008590023,-0.0019254617,-0.00025607992,0.0019805676,0.0032512425,-0.000538092,-0.0055397544,-0.0024992104,-0.00083307014,-0.00055105804,0.0007747228,0.0018411822,0.0010210782,-0.0004635371,-0.0012415014,-0.00033387635,-0.0011150822,-0.0020745716,-0.0017050385,-0.0008590023,0.00063533755,0.0026742523,0.0007358246,-0.0015526871,-0.0013808866,-0.0030859252,-0.0010729425,0.0009367987,-0.00024635537,0.0012674335,0.00044084646,-0.0018476653,-0.002058364,0.00025932144,0.0012544675,-0.00051540136,-0.0016240005,-0.0016013099,-0.0005705072,0.0017504197,0.0013095733,-0.00027552902,-0.0016402081,-0.0030437855,-0.0020875377,0.00056402414,0.0013192978,0.00073258305,0.002132919,0.001251226,-0.005526788,-0.000901142,0.00021069866,-0.0006483036,0.001157222,0.0011248067,0.00049595226,-0.001082667,-0.0009173496,-0.0015073059,-0.000719617,-0.00025607992,-0.00023014778,0.001351713,0.00024311386,-0.00042463886,-0.0020842962,-0.002502452,0.0009594893,0.0015656532,-0.00061588845,-0.0004862277,-0.000450571,-0.0015008228,-0.00044732948,0.00015235135,-0.00010372858,-0.00010048706,0.0003241518,-0.00010048706,-0.0007974134,-0.00036953305,-0.00044084646,-0.00057374866,-0.00035008395,-0.0006483036,0.001157222,0.0011248067,0.00049595226,-0.001082667,-0.0009173496,-0.0015073059,-0.000719617,-0.00025607992,-0.00023014778,0.001351713,0.00024311386,-0.00042463886,-0.0020842962,-0.002502452,0.0009594893,0.0015656532,-0.00061588845,-0.0004862277,-0.000450571,-0.0015008228,-0.00044732948,0.00015235135,-0.00010372858,-0.00010048706,0.0003241518,-0.00010048706,-0.0007974134,-0.00036953305,-0.00044084646,-0.00057374866,-0.00035008395,6.483036e-05,-6.483036e-05,0.0011734295,-0.00057374866,-0.0012026032,-0.0005769902,-0.0012803996,-0.0010470103,0.0018735974,0.0027941884,-0.0021426433,-0.0018573898,0.00037277458,-0.00076499826,-0.0002528384,0.00015235135,-1.2966072e-05,0.00029497815,0.00055429956,-0.0006677527,-0.0005218844,-0.0006709942,-0.0004829862,0.0006904433,-0.00054457504,-0.0004149143,0.0005607826,0.00038898215,-0.00020097411,-0.0011507389,-0.0009076251,-0.00070340943,0.0010729425,0.00065478665,0.0003047027,-0.00035008395,-0.0017115215,-0.00083631166,0.0006580282,0.00051540136,0.00029173662,5.186429e-05,-0.0005024353,-0.0007714813,-0.0011410144,0.0010923916,0.00031442725,0.0008784514,-3.56567e-05,-0.0011539804,-0.000995146,-0.0001620759,0.0003987067,6.483036e-06,0.0019189786,-0.0018671143,0.0007163755,0.00020097411,-0.0011021161,-0.00051215984,-3.8898215e-05,0.0008881759,0.00035008395,0.00027552902,0.0010729425,0.00065478665,0.0003047027,-0.00035008395,-0.0017115215,-0.00083631166,0.0006580282,0.00051540136,0.00029173662,5.186429e-05,-0.0005024353,-0.0007714813,-0.0011410144,0.0010923916,0.00031442725,0.0008784514,-3.56567e-05,-0.0011539804,-0.000995146,-0.0001620759,0.0003987067,6.483036e-06,0.0019189786,-0.0018671143,0.0007163755,0.00020097411,-0.0011021161,-0.00051215984,-3.8898215e-05,0.0008881759,0.00035008395,0.00027552902,-0.0007714813,-0.00080389646,-0.0009076251,0.0001426268,0.0011831541,0.00047974466,-0.00044732948,-0.00096273085,-0.00052512594,-0.00010372858,0.000625613,0.0011053577,-0.0010145952,0.00029821965,-0.00051215984,-0.0011928786,0.00081686256,0.00047974466,0.00023014778,-0.00043760493,-0.0002171817,-0.00029497815,8.103795e-05,0.00035008395,-0.00035008395,-0.00036629153,0.00060616387,-0.0003792576,0.00064182054,-0.00018476653,-0.00035332545,0.000110211615,-0.0007714813,-0.00080389646,-0.0009076251,0.0001426268,0.0011831541,0.00047974466
