-0.001452294,-0.001452249,-0.001452185,-0.001452111,-0.001452036,-0.001451975,-0.00145194,-0.001451941,-0.001451982,-0.001452059,-0.001452161,-0.001452269,-0.001452359,-0.001452407,-0.001452393,-0.001452306,-0.00145215,-0.001451941,-0.001451712,-0.001451504,-0.001451362,-0.001451325,-0.001451417,-0.001451642,-0.001451973,-0.00145236,-0.00145273,-0.001453001,-0.001453098,-0.001452966,-0.001452589,-0.001452,-0.001451281,-0.001450555,-0.001449971,-0.001449673,-0.001449775,-0.001450326,-0.001451291,-0.001452545,-0.001453879,-0.00145503,-0.001455724,-0.001455736,-0.001454939,-0.001453352,-0.001451163,-0.001448718,-0.00144648,-0.001444953,-0.001444586,-0.001445669,-0.001448243,-0.001452051,-0.001456531,-0.001460882,-0.001464187,-0.001465579,-0.001464435,-0.001460547,-0.00145424,-0.001446404,-0.001438409,-0.001431911,-0.001428556,-0.001429643,-0.001435787,-0.00144667,-0.001460939,-0.0014763,-0.001489822,-0.001498436,-0.001499544,-0.001491647,-0.001474857,-0.001451164,-0.00142437,-0.001399628,-0.001382617,-0.001378467,-0.001390591,-0.001419673,-0.001463037,-0.001514594,-0.001565496,-0.001605477,-0.001624737,-0.001616063,-0.001576811,-0.001510284,-0.001426142,-0.001339558,-0.001269081,-0.001233415,-0.001247581,-0.001319154,-0.001445363,-0.001611821,-0.001793436,-0.001957715,-0.002070209,-0.002101352,-0.002033537,-0.00186699,-0.001623024,-0.001343505,-0.001085971,-0.000914616,-0.000888282,-0.001047394,-0.001402365,-0.001926161,-0.002553298,-0.003186682,-0.00371226,-0.004019894,-0.00402723,-0.003702167,-0.003079009,-0.002263807,-0.001425824,-0.000774396,-0.000523344,-0.000848078,-0.001843,-0.003488098,-0.005633371,-0.008007571,-0.010253881,-0.01199005,-0.012884963,-0.012738774,-0.011550632,-0.00955772,-0.007232283,-0.005229627,-0.004288961,-0.005099033,-0.008150036,-0.013600013,-0.021186187,-0.030207964,-0.039598528,-0.048086843,-0.054433703,-0.05770736,-0.057549888,-0.054378445,-0.049468557,-0.044880635,-0.043215114,-0.047212686,-0.059248964,-0.08080124,-0.111982542,-0.151239734,-0.195295467,-0.23937916,-0.277744418,-0.304417214,-0.314070759,-0.302889284,-0.269272353,-0.214247884,-0.141505014,-0.057020417,0.031677385,0.116495677,0.189860257,0.245717834,0.280296755,0.292508319,0.283935362,0.258427078,0.221385166,0.178874205,0.13671071,0.099678257,0.070983603,0.052018564,0.042435093,0.04048727,0.043553197,0.048728145,0.053379812,0.05557528,0.054321986,0.049604407,0.042236521,0.033580536,0.025200308,0.018521371,0.014559506,0.013759732,0.015962233,0.020486404,0.02630347,0.032255338,0.037273824,0.040559732,0.041693397,0.040664289,0.037823642,0.033777875,0.029249526,0.024935303,0.021387918,0.018940599,0.017682652,0.017483444,0.018052939,0.019021187,0.020017729,0.020734671,0.02096319,0.020600722,0.019633329,0.018102916,0.016071235,0.013591543,0.010695152,0.007394982,0.003703126,-0.00034431,-0.004663489,-0.009107917,-0.013467405,-0.017482407,-0.020871609,-0.02336788,-0.024756306,-0.024907987,-0.023804458,-0.021549318,-0.018365524,-0.01457849,-0.010586446,-0.006820589,-0.003698584,-0.001575933,-0.000700684,-0.001177472,-0.002946748,-0.00578383,-0.009320021,-0.013084819,-0.016564559,-0.019269672,-0.020800684,-0.020902853,-0.019500981,-0.016709225,-0.012814892,-0.008239422,-0.003483082,0.000938126,0.004554574,0.006996375,0.008032265,0.007590655,0.005761775,0.002781908,-0.000997706,-0.005153364,-0.009237893,-0.012830524,-0.01558188,-0.017248739,-0.017714501,-0.016993211,-0.015217452,-0.012612826,-0.00946372,-0.006076071,-0.002742708,0.000284353,0.00281226,0.004716008,0.005938942,0.006487447,0.00642226,0.005848031,0.004901724,0.003739551,0.00252189,0.001396135,0.000478623,-0.000161943,-0.00051615,-0.000637096,-0.000632682,-0.000646452,-0.00082905,-0.001304852,-0.002140124,-0.003319515,-0.004736733,-0.006202823,-0.007472195,-0.008282959,-0.008405106,-0.007688123,-0.006099253,-0.003744759,-0.000869148,0.002169225,0.00494388,0.007021362,0.008029037,0.007719161,0.006018667,0.003055684,-0.000843219,-0.005186806,-0.009380859,-0.012809913,-0.014927406,-0.015340498,-0.013875901,-0.010615522,-0.005895146,-0.000265138,0.005581812,0.010905554,0.015021996,0.017399865,0.017736331,0.01600031,0.012437024,0.007533131,0.001947421,-0.003582892,-0.008346677,-0.011758929,-0.013441579,-0.013273086,-0.011399443,-0.008205148,-0.004248982,-0.000175038,0.003386611,0.005913652,0.00706496,0.006722704,0.004997744,0.002199249,-0.001224554,-0.004763223,-0.007925076,-0.010309194,-0.0116579,-0.011883251,-0.011065782,-0.009428199,-0.007290186,-0.005012633,-0.002940289,-0.001351307,-0.00042056,-0.000201385,-0.00062767,-0.001535294,-0.002699032,-0.003878538,-0.004865283,-0.005521848,-0.005805982,-0.005774469,-0.005565744,-0.005364651,-0.005356812,-0.005682684,-0.006401856,-0.007476067,-0.008775261,-0.010105636,-0.011253338,-0.012033576,-0.012333457,-0.012138136,-0.011533673,-0.010685399,-0.009796198,-0.009053801,-0.008578701,-0.008384314,-0.008358543,-0.00827158,-0.007809649,-0.006629406,-0.004423814,-0.000988113,0.003725777,0.009576492,0.016228989,0.02318146,0.029821131,0.035501985,0.039633385,0.041766116,0.041661781,0.03933338,0.035048975,0.029296246,0.022712464,0.015990653,0.009777387,0.004579509,0.000695818,-0.001814612,-0.003122437,-0.003578963,-0.003637719,-0.003761662,-0.004333378,-0.005584651,-0.007557718,-0.010104226,-0.012920659,-0.015612166,-0.017771779,-0.019059622,-0.019267475,-0.01835756,-0.016469821,-0.013898241,-0.011042392
-0.003319515,-0.004736733,-0.006202823,-0.007472195,-0.008282959,-0.008405106,-0.007688123,-0.006099253,-0.003744759,-0.000869148,0.002169225,0.00494388,0.007021362,0.008029037,0.007719161,0.006018667,0.003055684,-0.000843219,-0.005186806,-0.009380859,-0.012809913,-0.014927406,-0.015340498,-0.013875901,-0.010615522,-0.005895146,-0.000265138,0.005581812,0.010905554,0.015021996,0.017399865,0.017736331,0.01600031,0.012437024,0.007533131,0.001947421,-0.003582892,-0.008346677,-0.011758929,-0.013441579,-0.013273086,-0.011399443,-0.008205148,-0.004248982,-0.000175038,0.003386611,0.005913652,0.00706496,0.006722704,0.004997744,0.002199249,-0.001224554,-0.004763223,-0.007925076,-0.010309194,-0.0116579,-0.011883251,-0.011065782,-0.009428199,-0.007290186,-0.005012633,-0.002940289,-0.001351307,-0.00042056,-0.000201385,-0.00062767,-0.001535294,-0.002699032,-0.003878538,-0.004865283,-0.005521848,-0.005805982,-0.005774469,-0.005565744,-0.005364651,-0.005356812,-0.005682684,-0.006401856,-0.007476067,-0.008775261,-0.010105636,-0.011253338,-0.012033576,-0.012333457,-0.012138136,-0.011533673,-0.010685399,-0.009796198,-0.009053801,-0.008578701,-0.008384314,-0.008358543,-0.00827158,-0.007809649,-0.006629406,-0.004423814,-0.000988113,0.003725777,0.009576492,0.016228989,0.02318146,0.029821131,0.035501985,0.039633385,0.041766116,0.041661781,0.03933338,0.035048975,0.029296246,0.022712464,0.015990653,0.009777387,0.004579509,0.000695818,-0.001814612,-0.003122437,-0.003578963,-0.003637719,-0.003761662,-0.004333378,-0.005584651,-0.007557718,-0.010104226,-0.012920659,-0.015612166,-0.017771779,-0.019059622,-0.019267475,-0.01835756,-0.016469821,-0.013898241,-0.011042392,-0.008344484,-0.006223844,-0.005019852,-0.004951307,-0.006095882,-0.008388909,-0.011637365,-0.015543436,-0.019732753,-0.023784738,-0.027265687,-0.029767686,-0.030956999,-0.03063336,-0.028796696,-0.025711198,-0.021950336,-0.018402595,-0.01621859,-0.016687,-0.021039288,-0.030199737,-0.044514634,-0.063508516,-0.085722146,-0.108683309,-0.129046489,-0.142912174,-0.146304745,-0.135755102,-0.108906921,-0.065049732,-0.00548219,0.066373477,0.145151594,0.224019436,0.295403935,0.351879722,0.387098789,0.396629344,0.378579494,0.333909385,0.266379249,0.182133706,0.088976162,-0.004567012,-0.090262151,-0.161122643,-0.212171641,-0.24091348,-0.247459545,-0.234306967,-0.205819745,-0.167503501,-0.125190646,-0.084258739,-0.048991413,-0.022161482,-0.004875833,0.003321523,0.004130999,3.54E-05,-0.006219117,-0.012111244,-0.015730435,-0.016009929,-0.012788364,-0.00670995,0.001001418,0.008841804,0.015341665,0.019339732,0.020173481,0.017761795,0.012576355,0.005517811,-0.002272165,-0.009623683,-0.015536473,-0.019329526,-0.020721192,-0.019832905,-0.017123973,-0.013276223,-0.009054025,-0.005166521,-0.002155296,-0.000323476,0.000286773,-0.000129677,-0.001202008,-0.002467763,-0.003464559,-0.003814208,-0.003287018,-0.001838076,0.000388113,0.003083661,0.005828907,0.008161079,0.009649204,0.009963529,0.008928476,0.006550666,0.003017584,-0.001332495,-0.006063576,-0.01070815,-0.014834395,-0.018102542,-0.02030125,-0.021359442,-0.021334373,-0.020381455,-0.018714537,-0.016566138,-0.014155651,-0.011670281,-0.00925948,-0.007039981,-0.005106171,-0.003539925,-0.002415169,-0.001794823,-0.001720631,-0.002198846,-0.00318625,-0.004581122,-0.006222732,-0.007900973,-0.009375536,-0.010402018,-0.010761006,-0.010285714,-0.008884077,-0.006552245,-0.003377794,0.000467565,0.004744602,0.009170337,0.013446043,0.017286291,0.020445907,0.022742087,0.024069649,0.024408275,0.023821577,0.022448795,0.020490608,0.018190957,0.01581678,0.013637245,0.011903561,0.010829995,0.010576471,0.011233178,0.012808048,0.015218485,0.018289207,0.021758101,0.02529151,0.028509219,0.031017863,0.03244981,0.032503245,0.030978524,0.027806032,0.023061779,0.016968491,0.009881689,0.002261888,-0.005364681,-0.01245346,-0.018493075,-0.023056439,-0.02584657,-0.026731963,-0.025766557,-0.023190193,-0.019407185,-0.014943309,-0.0103848,-0.006306239,-0.00319692,-0.001396472,-0.001049969,-0.00209014,-0.004250174,-0.007105586,-0.010138774,-0.012816131,-0.014665688,-0.015343546,-0.014679649,-0.012697254,-0.009604815,-0.005763209,-0.001634425,0.002280248,0.005504027,0.007642616,0.008430034,0.007757858,0.005685467,0.002430769,-0.001657243,-0.006141047,-0.010547578,-0.014425582,-0.017400335,-0.019218552,-0.019777109,-0.019131015,-0.017478916,-0.015127716,-0.012441351,-0.009781582,-0.00745039,-0.005643768,-0.004425117,-0.003723391,-0.003356808,-0.003078214,-0.002633907,-0.001824679,-0.000556855,0.001127531,0.003048601,0.004916393,0.006384252,0.00711808,0.006867826,0.005526495,0.003163859,2.68E-05,-0.003494947,-0.006932458,-0.009817847,-0.011766361,-0.01254359,-0.012104725,-0.010598135,-0.00833284,-0.005716632,-0.003177386,-0.001083214,0.000322922,0.000961709,0.000922196,0.000432619,-0.000196079,-0.00064216,-0.000645649,-6.68E-05,0.001081644,0.002634361,0.004306754,0.005753956,0.006644252,0.006731647,0.005912487,0.004254021,0.001988438,-0.000527041,-0.002876271,-0.004663185,-0.005587542,-0.00550196,-0.004438797,-0.002601975,-0.000326346,0.001986027,0.003938872,0.005208994,0.00559509,0.005040257,0.003626666,0.001546938,-0.000938849,-0.003549745,-0.006024288,-0.00814792,-0.009765065,-0.010777706,-0.01113535,-0.010822542,-0.009849454,-0.008248904,-0.006080263,-0.003437952,-0.00046025,0.002666437,0.005711969,0.008417677,0.010521931
0.000961709,0.000922196,0.000432619,-0.000196079,-0.00064216,-0.000645649,-6.68E-05,0.001081644,0.002634361,0.004306754,0.005753956,0.006644252,0.006731647,0.005912487,0.004254021,0.001988438,-0.000527041,-0.002876271,-0.004663185,-0.005587542,-0.00550196,-0.004438797,-0.002601975,-0.000326346,0.001986027,0.003938872,0.005208994,0.00559509,0.005040257,0.003626666,0.001546938,-0.000938849,-0.003549745,-0.006024288,-0.00814792,-0.009765065,-0.010777706,-0.01113535,-0.010822542,-0.009849454,-0.008248904,-0.006080263,-0.003437952,-0.00046025,0.002666437,0.005711969,0.008417677,0.010521931,0.011792951,0.012063562,0.011261452,0.009428593,0.006724937,0.003414003,-0.000168767,-0.003660732,-0.006722889,-0.009088278,-0.010599373,-0.011227565,-0.011071037,-0.010331439,-0.009273922,-0.00817836,-0.007291256,-0.006787322,-0.006747329,-0.007154973,-0.007911245,-0.008861174,-0.009825708,-0.010631388,-0.011132253,-0.011221446,-0.010833361,-0.009939865,-0.008545327,-0.006684647,-0.004426366,-0.001880004,0.00079607,0.00339165,0.005652041,0.007299288,0.008067432,0.007747851,0.006236986,0.003576516,-2.42E-05,-0.004191128,-0.008418138,-0.01212637,-0.014743613,-0.015790962,-0.014962138,-0.012180901,-0.007624959,-0.001710218,0.004963957,0.011700673,0.017808843,0.022706384,0.026005105,0.027561926,0.027486863,0.026106198,0.023887795,0.021343006,0.018924442,0.016939876,0.015499407,0.01450621,0.01369212,0.012689886,0.011126195,0.008715307,0.005333251,0.001056962,-0.003839441,-0.008929768,-0.01371205,-0.017699539,-0.020507441,-0.021918084,-0.021912455,-0.020663615,-0.018495563,-0.015818073,-0.013052299,-0.010562925,-0.008610195,-0.007329946,-0.006743061,-0.006788921,-0.007371953,-0.008407502,-0.009853543,-0.011718319,-0.014040231,-0.016843845,-0.020083267,-0.023589497,-0.027040259,-0.02996836,-0.031817715,-0.03204579,-0.030259228,-0.026358231,-0.0206577,-0.013951304,-0.007489973,-0.002858757,-0.00175401,-0.005683508,-0.015631669,-0.031746354,-0.053109312,-0.07764695,-0.102221415,-0.1229156,-0.135493611,-0.135985438,-0.121317183,-0.089891482,-0.042020887,0.01986863,0.091317176,0.166205891,0.237394125,0.29754275,0.340014649,0.359726654,0.353829836,0.32211717,0.267096075,0.193712048,0.10876084,0.020071982,-0.064421174,-0.137595617,-0.193913716,-0.22996042,-0.244682549,-0.239316093,-0.217032898,-0.182376005,-0.140577613,-0.096862368,-0.05583134,-0.021001308,0.005455803,0.022761756,0.031389033,0.032771088,0.028926615,0.022063674,0.014224219,0.007015918,0.001458898,-0.002046185,-0.003642259,-0.003861098,-0.003427896,-0.003065158,-0.003330933,-0.004516023,-0.006611205,-0.009341422,-0.012251811,-0.014822341,-0.016584927,-0.017219191,-0.016609692,-0.014856818,-0.012243452,-0.00916814,-0.006061077,-0.003301072,-0.001149754,0.000285676,0.001056418,0.001344909,0.001414327,0.001546205,0.001978713,0.002856899,0.004203076,0.005911338,0.00776578,0.009478036,0.010736877,0.011261116,0.010847028,0.009402883,0.006965587,0.00369751,-0.000135311,-0.004199598,-0.008140013,-0.011626301,-0.014395795,-0.016285703,-0.01725127,-0.017367811,-0.016816548,-0.015856014,-0.014782372,-0.013883371,-0.013391678,-0.013443962,-0.014052056,-0.015091671,-0.016312371,-0.017369678,-0.017876787,-0.017469623,-0.015875739,-0.01297553,-0.008843979,-0.003763215,0.001799698,0.007249535,0.011947575,0.015311641,0.016914972,0.016566212,0.01435493,0.010652382,0.006064847,0.001345417,-0.002721974,-0.005446901,-0.006343577,-0.005208995,-0.002153842,0.002419693,0.007889529,0.013521997,0.018597361,0.022529958,0.02496139,0.025810347,0.025270878,0.023760658,0.021830266,0.020051667,0.018907684,0.018703494,0.019516199,0.021190478,0.023378877,0.025616498,0.02741354,0.028346609,0.028131271,0.026663444,0.024024496,0.020452627,0.01628952,0.011915046,0.007683575,0.003873233,0.000655309,-0.001913944,-0.003881434,-0.005370812,-0.006548567,-0.007589491,-0.008646999,-0.009831742,-0.011199917,-0.012750968,-0.014433278,-0.016155794,-0.01780333,-0.019253281,-0.020391652,-0.021126557,-0.021397835,-0.021181956,-0.020492157,-0.019374368,-0.017900049,-0.016157323,-0.014241759,-0.012247946,-0.01026259,-0.008359522,-0.006596717,-0.005015221,-0.003639848,-0.002481428,-0.001540295,-0.000810569,-0.000284539,4.37E-05,0.000176413,0.000112553,-0.000148768,-0.000602778,-0.001232307,-0.002001868,-0.00285472,-0.00371478,-0.004494326,-0.005106981,-0.005483897,-0.005589786,-0.005434913,-0.005079583,-0.004629061,-0.004218901,-0.003992879,-0.004077474,-0.004557727,-0.005459124,-0.006738846,-0.008287852,-0.009943138,-0.011507723,-0.01277483,-0.013552487,-0.013685249,-0.013070792,-0.011670251,-0.009512253,-0.006691231,-0.003360896,0.000276313,0.00398323,0.007505026,0.010588928,0.01300589,0.014572903,0.015173903,0.014776537,0.013441733,0.011323225,0.00865514,0.005727392,0.002850764,0.000315835,-0.001648237,-0.002908078,-0.003446901,-0.003366826,-0.002870781,-0.002225835,-0.00171362,-0.001576487,-0.001969526,-0.002928098,-0.004357986,-0.006051114,-0.007724725,-0.009076986,-0.00984822,-0.009875356,-0.009128088,-0.007718677,-0.005882642,-0.003933695,-0.002201736,-0.000966485,-0.000400328,-0.000532146,-0.001239615,-0.002271677,-0.003296906,-0.003968478,-0.003993436,-0.003193256,-0.001544554,0.0008076,0.003566396,0.006327491,0.008643569,0.010098701,0.010380263,0.009336396,0.007009146,0.003637145,-0.000373462,-0.004505957,-0.00820922,-0.010981145,-0.012445829
0.00398323,0.007505026,0.010588928,0.01300589,0.014572903,0.015173903,0.014776537,0.013441733,0.011323225,0.00865514,0.005727392,0.002850764,0.000315835,-0.001648237,-0.002908078,-0.003446901,-0.003366826,-0.002870781,-0.002225835,-0.00171362,-0.001576487,-0.001969526,-0.002928098,-0.004357986,-0.006051114,-0.007724725,-0.009076986,-0.00984822,-0.009875356,-0.009128088,-0.007718677,-0.005882642,-0.003933695,-0.002201736,-0.000966485,-0.000400328,-0.000532146,-0.001239615,-0.002271677,-0.003296906,-0.003968478,-0.003993436,-0.003193256,-0.001544554,0.0008076,0.003566396,0.006327491,0.008643569,0.010098701,0.010380263,0.009336396,0.007009146,0.003637145,-0.000373462,-0.004505957,-0.00820922,-0.010981145,-0.012445829,-0.01241199,-0.010903122,-0.008154687,-0.004579188,-0.000705229,0.002899271,0.00570744,0.007305232,0.007444504,0.006070858,0.00332388,-0.000488466,-0.004936109,-0.00952638,-0.013768259,-0.017233012,-0.019603988,-0.020710161,-0.02054021,-0.019236356,-0.017069467,-0.014398999,-0.011622985,-0.009124287,-0.007219751,-0.006118443,-0.005894086,-0.006475043,-0.007653079,-0.009109844,-0.010457928,-0.011291562,-0.011240933,-0.010023544,-0.007486251,-0.003632466,0.00136951,0.007198982,0.013415691,0.019509716,0.024962589,0.029311591,0.032208081,0.033460856,0.033057396,0.031159069,0.028070758,0.024189924,0.019944036,0.015727584,0.011849876,0.0085025,0.005751038,0.003550442,0.001778548,0.000278826,-0.001097736,-0.002460434,-0.003861937,-0.005298041,-0.006721325,-0.008063017,-0.009256136,-0.010253658,-0.011037623,-0.011618006,-0.012023056,-0.012284947,-0.012425531,-0.012446746,-0.012328906,-0.01203817,-0.01154232,-0.010831943,-0.009942513,-0.008971883,-0.008087574,-0.007519057,-0.007532259,-0.008386576,-0.010278648,-0.013281322,-0.017289822,-0.021988987,-0.026854716,-0.031198862,-0.034259813,-0.035331845,-0.033916498,-0.029870803,-0.023522205,-0.015720153,-0.007800471,-0.001450553,0.001520253,-0.00051769,-0.008680644,-0.023258742,-0.04348253,-0.067423035,-0.092065289,-0.113571683,-0.127721675,-0.13048264,-0.118638454,-0.090383204,-0.045781857,0.012989698,0.081686154,0.154337093,0.223868588,0.282930252,0.324818291,0.344363287,0.338650159,0.307458274,0.253349273,0.181382832,0.098497442,0.012644935,-0.0681951,-0.136977934,-0.188396691,-0.21941728,-0.229481717,-0.220369565,-0.195759661,-0.160577031,-0.120236331,-0.079899907,-0.043855983,-0.015094196,0.004882229,0.016008837,0.019414,0.017038001,0.011193548,0.004143352,-0.002242364,-0.006706894,-0.008690384,-0.008283822,-0.006081883,-0.002975253,7.30E-05,0.002226995,0.002922477,0.001941689,-0.000584723,-0.004236957,-0.008407358,-0.01242041,-0.015648821,-0.017607461,-0.018013599,-0.016809137,-0.014147143,-0.01034996,-0.005848989,-0.001117161,0.003395701,0.007316365,0.01038478,0.012470916,0.01357174,0.013790828,0.013305213,0.012325568,0.011056401,0.009662611,0.008247348,0.006844027,0.005422749,0.003908936,0.002209967,0.000244486,-0.002031077,-0.004603478,-0.007394304,-0.010263692,-0.013025621,-0.015472602,-0.017406273,-0.018669439,-0.019174633,-0.018924278,-0.01801824,-0.016645932,-0.01506229,-0.01354965,-0.01237046,-0.01171824,-0.011675724,-0.012189012,-0.013064629,-0.013992758,-0.014595039,-0.014490285,-0.013367207,-0.011050862,-0.007549758,-0.003073392,0.00198491,0.00709867,0.011685039,0.015195287,0.017203914,0.017481285,0.016037276,0.013128143,0.00922468,0.004945926,0.000968148,-0.002077131,-0.003700262,-0.003630231,-0.001858195,0.001360296,0.005546107,0.010075035,0.014282052,0.017574277,0.019533313,0.019988626,0.01904811,0.017079323,0.014643721,0.012395047,0.010959854,0.010821766,0.012230485,0.015152016,0.019268823,0.024029379,0.028737564,0.032665488,0.03516968,0.035790937,0.034321914,0.030833026,0.025654784,0.019321955,0.012490547,0.005841899,-1.12E-05,-0.004603328,-0.007669718,-0.009169487,-0.009276749,-0.008343312,-0.006839249,-0.005280198,-0.004151505,-0.003839314,-0.004577626,-0.006418087,-0.009226227,-0.012704285,-0.016437162,-0.019954879,-0.022802639,-0.024608486,-0.025138883,-0.024334104,-0.022318162,-0.019381544,-0.015939005,-0.012468391,-0.009439479,-0.00724356,-0.006134661,-0.006191714,-0.007307807,-0.009208367,-0.011495348,-0.013710156,-0.015404862,-0.016209971,-0.015887801,-0.014363389,-0.011729022,-0.008223382,-0.004190594,-2.76E-05,0.003870684,0.007159363,0.009578778,0.010973395,0.011294892,0.010592253,0.008993294,0.006682282,0.003877529,0.0008115,-0.002285476,-0.005197966,-0.007735393,-0.009740093,-0.01109417,-0.011725426,-0.011612252,-0.010786996,-0.009337079,-0.007402983,-0.005172207,-0.002868414,-0.000735362,0.000984172,0.002073298,0.002367563,0.001779861,0.000319806,-0.001896391,-0.004648766,-0.007630752,-0.010480063,-0.012820278,-0.014307903,-0.014678281,-0.013783399,-0.011615616,-0.008313421,-0.004148158,0.000506352,0.005216817,0.009539953,0.013071818,0.015490965,0.016590843,0.0162987,0.014680001,0.011928874,0.008346091,0.004306853,0.000221161,-0.003509828,-0.006537519,-0.008605203,-0.009578374,-0.009461791,-0.008400075,-0.006660388,-0.004597985,-0.002607896,-0.001068369,-0.000283486,-0.000433316,-0.001539684,-0.003454102,-0.005871552,-0.008370065,-0.01047181,-0.011717465,-0.011742742,-0.010344641,-0.007525871,-0.003508758,0.001285338,0.006289459,0.010869999,0.014419251,0.01644694,0.016655926,0.014989618,0.011643151,0.007036218,0.001751655,-0.00355062,-0.008230797
-0.005172207,-0.002868414,-0.000735362,0.000984172,0.002073298,0.002367563,0.001779861,0.000319806,-0.001896391,-0.004648766,-0.007630752,-0.010480063,-0.012820278,-0.014307903,-0.014678281,-0.013783399,-0.011615616,-0.008313421,-0.004148158,0.000506352,0.005216817,0.009539953,0.013071818,0.015490965,0.016590843,0.0162987,0.014680001,0.011928874,0.008346091,0.004306853,0.000221161,-0.003509828,-0.006537519,-0.008605203,-0.009578374,-0.009461791,-0.008400075,-0.006660388,-0.004597985,-0.002607896,-0.001068369,-0.000283486,-0.000433316,-0.001539684,-0.003454102,-0.005871552,-0.008370065,-0.01047181,-0.011717465,-0.011742742,-0.010344641,-0.007525871,-0.003508758,0.001285338,0.006289459,0.010869999,0.014419251,0.01644694,0.016655926,0.014989618,0.011643151,0.007036218,0.001751655,-0.00355062,-0.008230797,-0.011762238,-0.013805869,-0.014254363,-0.013239494,-0.011102025,-0.008329689,-0.005474125,-0.003061094,-0.001509281,-0.001071128,-0.00180487,-0.003580888,-0.00611906,-0.009048101,-0.011974302,-0.014546141,-0.016503194,-0.017701917,-0.018116307,-0.017816717,-0.016934226,-0.015619949,-0.014008423,-0.012192036,-0.010210026,-0.00805198,-0.005672787,-0.003014147,-2.74E-05,0.003306836,0.00696531,0.010876283,0.014921197,0.018942708,0.022757505,0.026172131,0.029000013,0.031077943,0.032280287,0.032529444,0.031801426,0.030126173,0.027582991,0.024292366,0.020405838,0.01609569,0.011545612,0.006942677,0.002470021,-0.001700941,-0.005419842,-0.008568551,-0.011073253,-0.012915095,-0.014136157,-0.014837452,-0.015166738,-0.015295988,-0.015390993,-0.015578098,-0.015914821,-0.016371417,-0.016829153,-0.017098171,-0.016953985,-0.01618745,-0.014659581,-0.012350425,-0.009391088,-0.006069972,-0.002808264,-0.000105087,0.001541342,0.001724707,0.000217876,-0.002960992,-0.007519582,-0.012911246,-0.018407475,-0.023217547,-0.026639973,-0.028221693,-0.027895436,-0.026064741,-0.023610817,-0.021805613,-0.022130245,-0.02601516,-0.03453544,-0.048108243,-0.066246769,-0.087423977,-0.109088688,-0.127857098,-0.139876379,-0.141327511,-0.129006596,-0.100902663,-0.056680028,0.00202231,0.071542001,0.146429969,0.219964617,0.284891161,0.334294063,0.362483272,0.365765654,0.342984152,0.29573791,0.228242492,0.146843006,0.059245717,-0.026423327,-0.10259822,-0.163152787,-0.20405851,-0.22373594,-0.223063709,-0.20506222,-0.17431714,-0.136243119,-0.096305582,-0.059315954,-0.028895191,-0.007166474,0.005302741,0.009329356,0.006767069,5.70E-05,-0.008241687,-0.015867146,-0.02115801,-0.023213868,-0.021907618,-0.017769841,-0.011783202,-0.005134386,0.001028635,0.005794027,0.008611732,0.009337057,0.008197486,0.005700437,0.002507065,-0.000700951,-0.003337928,-0.004997231,-0.005492728,-0.004859079,-0.003317986,-0.001221594,0.001014587,0.002978145,0.004317181,0.004783413,0.004258457,0.002762781,0.000448028,-0.00242576,-0.005525654,-0.008490514,-0.010979804,-0.01272016,-0.013542606,-0.013403969,-0.01238812,-0.010686213,-0.00855919,-0.006289642,-0.004132511,-0.00227445,-0.000809721,0.00026328,0.001025388,0.001604776,0.002137647,0.002730344,0.003430688,0.004213681,0.004983346,0.00558912,0.005852751,0.005600325,0.004693893,0.003057974,0.000697431,-0.0022953,-0.005744326,-0.00940519,-0.012988873,-0.01619227,-0.018731656,-0.020375196,-0.020970497,-0.020463723,-0.018907815,-0.016458723,-0.013360042,-0.00991773,-0.006467562,-0.003338593,-0.000816156,0.000891981,0.001682781,0.001575118,0.000714169,-0.00063894,-0.002132783,-0.003365245,-0.003933582,-0.003489198,-0.001789772,0.001259339,0.005581771,0.010930085,0.01691067,0.023031168,0.028763924,0.033615887,0.037193964,0.039255474,0.039735876,0.038749838,0.036566247,0.033561897,0.030161748,0.026775275,0.023738433,0.021269374,0.019443614,0.018191375,0.017316742,0.016535399,0.015525389,0.013983636,0.011680174,0.008502067,0.004480185,-0.000205878,-0.005246436,-0.010241968,-0.014759486,-0.018396437,-0.020841804,-0.021924032,-0.021637331,-0.020141565,-0.017735692,-0.014809606,-0.011783305,-0.009044496,-0.006895754,-0.005520028,-0.004969246,-0.005175987,-0.005983625,-0.007187153,-0.008575494,-0.00996682,-0.011230792,-0.012295102,-0.013137396,-0.013766754,-0.014200871,-0.01444553,-0.014481964,-0.01426551,-0.01373608,-0.012838028,-0.011544513,-0.009880062,-0.007934938,-0.005866322,-0.003883918,-0.002220953,-0.001095033,-0.000666012,-0.000999473,-0.002043983,-0.003628028,-0.005478904,-0.007261421,-0.008630198,-0.009286389,-0.009028597,-0.007788706,-0.005646238,-0.002818793,0.000369521,0.003536041,0.006295789,0.008316948,0.009367189,0.00934428,0.008287093,0.006366076,0.003855131,0.001089382,-0.001584829,-0.003860288,-0.005512055,-0.006426836,-0.006614024,-0.006196691,-0.005384154,-0.004430897,-0.003589146,-0.003063525,-0.002975913,-0.003346647,-0.004095117,-0.005059131,-0.006028937,-0.006789189,-0.007160956,-0.00703612,-0.00639821,-0.005326334,-0.003981831,-0.002580203,-0.001353157,-0.000507076,-0.000184798,-0.000437117,-0.001209167,-0.002344663,-0.003608342,-0.004723859,-0.00542152,-0.005487941,-0.004808645,-0.003395112,-0.001390086,0.000951276,0.003302174,0.005320029,0.006707165,0.00726458,0.006928088,0.005779485,0.004030416,0.001982221,-3.00E-05,-0.001698022,-0.002793173,-0.003202165,-0.002938836,-0.002131547,-0.000990052,0.000240154,0.00132603,0.002087999,0.002426244,0.002328373,0.001858687,0.001133082,0.000286276,-0.000560786,-0.001326092,-0.001979098,-0.002538523,-0.003056786
-0.003589146,-0.003063525,-0.002975913,-0.003346647,-0.004095117,-0.005059131,-0.006028937,-0.006789189,-0.007160956,-0.00703612,-0.00639821,-0.005326334,-0.003981831,-0.002580203,-0.001353157,-0.000507076,-0.000184798,-0.000437117,-0.001209167,-0.002344663,-0.003608342,-0.004723859,-0.00542152,-0.005487941,-0.004808645,-0.003395112,-0.001390086,0.000951276,0.003302174,0.005320029,0.006707165,0.00726458,0.006928088,0.005779485,0.004030416,0.001982221,-3.00E-05,-0.001698022,-0.002793173,-0.003202165,-0.002938836,-0.002131547,-0.000990052,0.000240154,0.00132603,0.002087999,0.002426244,0.002328373,0.001858687,0.001133082,0.000286276,-0.000560786,-0.001326092,-0.001979098,-0.002538523,-0.003056786,-0.003595572,-0.004199107,-0.004872393,-0.005570537,-0.006202765,-0.006651125,-0.006800061,-0.006569982,-0.005946323,-0.004996023,-0.003865876,-0.002761217,-0.001908234,-0.001507414,-0.001688396,-0.002476832,-0.003781731,-0.005407381,-0.007088539,-0.008542158,-0.009525049,-0.009885278,-0.009596248,-0.008766047,-0.007619764,-0.006458004,-0.005599522,-0.005318782,-0.005789914,-0.007047039,-0.008967762,-0.011282556,-0.013608503,-0.015502212,-0.016523938,-0.016303433,-0.014597771,-0.011332379,-0.006618722,-0.000745272,0.005857651,0.012674401,0.019173366,0.024877968,0.029427347,0.032616121,0.034406282,0.034909496,0.034344062,0.032976044,0.031057545,0.028775713,0.026223674,0.023399526,0.020232963,0.016632554,0.01254166,0.007988638,0.003117988,-0.001806867,-0.006432188,-0.010369799,-0.013269685,-0.014894341,-0.015178543,-0.014260215,-0.012473228,-0.010300287,-0.008292269,-0.006967832,-0.006712239,-0.00769602,-0.00983161,-0.012779707,-0.016007754,-0.018892306,-0.020847264,-0.021453064,-0.020559709,-0.018339833,-0.01527663,-0.012084066,-0.009571028,-0.008474017,-0.009291769,-0.012157678,-0.01678096,-0.022475724,-0.028280362,-0.033151019,-0.036195947,-0.03690571,-0.035330197,-0.032158491,-0.028671725,-0.026560184,-0.027621057,-0.033378091,-0.044684656,-0.0613831,-0.082092849,-0.104186088,-0.123983847,-0.137170299,-0.139384047,-0.126909103,-0.097361889,-0.050259954,0.012633344,0.087265955,0.167590069,0.246172039,0.315047776,0.366708754,0.395077932,0.396331603,0.369443337,0.316366714,0.241827617,0.152755419,0.057435838,-0.035492132,-0.118052924,-0.183825033,-0.228589623,-0.250661541,-0.250876974,-0.232262969,-0.199457997,-0.157983347,-0.11347836,-0.071007716,-0.034528287,-0.006571039,0.011843744,0.021075836,0.022566545,0.018438675,0.01106795,0.002693231,-0.004882479,-0.010469858,-0.013542943,-0.014174987,-0.012890637,-0.010473106,-0.007765823,-0.00550222,-0.004186925,-0.004039121,-0.004996844,-0.006771222,-0.008933478,-0.011015028,-0.012601907,-0.013408307,-0.013319089,-0.012397017,-0.010856237,-0.009008658,-0.007193856,-0.005705486,-0.004727684,-0.004293327,-0.004272508,-0.004394427,-0.004299959,-0.003616324,-0.00204066,0.000583141,0.004209609,0.00857085,0.013195907,0.017469307,0.020720479,0.022329713,0.021832889,0.019006979,0.013921352,0.006945662,-0.0012877,-0.009961129,-0.018177555,-0.025078464,-0.029956745,-0.032348128,-0.032088579,-0.029330332,-0.024515336,-0.018310958,-0.011517937,-0.004964062,0.000601448,0.004598651,0.006681194,0.006766994,0.005033099,0.001877513,-0.002145017,-0.006403381,-0.010275469,-0.013227599,-0.01487858,-0.015041362,-0.01373815,-0.011187951,-0.00776864,-0.003958566,-0.000265295,0.002849048,0.005035487,0.006109076,0.006075144,0.005126549,0.003612067,0.001980808,0.000711597,0.00023878,0.000886409,0.002820958,0.006029212,0.010323364,0.015370782,0.020742129,0.025969332,0.030604394,0.034271086,0.036703739,0.037769867,0.037475892,0.035957175,0.033454958,0.030283695,0.026792662,0.023325993,0.020185265,0.01759848,0.01569862,0.014513873,0.01397021,0.01390538,0.014092007,0.014266446,0.014159682,0.013526852,0.012172735,0.009971654,0.006881177,0.002949678,-0.0016821,-0.006785649,-0.012056159,-0.017131918,-0.021622422,-0.025144963,-0.027367577,-0.028054037,-0.027104543,-0.024584695,-0.020735758,-0.015961348,-0.010789245,-0.005811507,-0.001610309,0.001319762,0.002640817,0.002220822,0.000154281,-0.003249551,-0.007509709,-0.012041481,-0.016238999,-0.019559836,-0.021598844,-0.022140293,-0.021180909,-0.018921031,-0.015725985,-0.0120643,-0.008432732,-0.005279929,-0.002940553,-0.001589898,-0.001225687,-0.001679363,-0.002654399,-0.00378478,-0.004703517,-0.00510946,-0.004821053,-0.003807943,-0.002195257,-0.000240074,0.001715552,0.003306565,0.004210862,0.004207567,0.003217344,0.001317779,-0.001268679,-0.004211686,-0.007127874,-0.009643378,-0.011452504,-0.012361962,-0.012313101,-0.011379062,-0.009738844,-0.007634954,-0.005324436,-0.003034167,-0.000929834,0.000895483,0.002412192,0.003628714,0.004558044,0.005186837,0.005456971,0.005266409,0.004491072,0.003023632,0.000819991,-0.002058796,-0.005421573,-0.008948506,-0.012222716,-0.014789099,-0.016230674,-0.016247971,-0.014725176,-0.011768397,-0.00770632,-0.003050655,0.001578365,0.005549179,0.008321822,0.00953818,0.009083236,0.007106098,0.003996836,0.00032301,-0.003263096,-0.00613052,-0.007770864,-0.007877821,-0.006392198,-0.003505923,0.00037425,0.004695789,0.008849359,0.012262109,0.01447979,0.015225073,0.014424397,0.012201688,0.008843165,0.004742079,0.000334759,-0.003960466,-0.007792049,-0.010905975,-0.013157105,-0.014503712,-0.014990519,-0.014726482,-0.013862806,-0.012574599,-0.011047029,-0.009464714,-0.008001921,-0.006811369
-0.009643378,-0.011452504,-0.012361962,-0.012313101,-0.011379062,-0.009738844,-0.007634954,-0.005324436,-0.003034167,-0.000929834,0.000895483,0.002412192,0.003628714,0.004558044,0.005186837,0.005456971,0.005266409,0.004491072,0.003023632,0.000819991,-0.002058796,-0.005421573,-0.008948506,-0.012222716,-0.014789099,-0.016230674,-0.016247971,-0.014725176,-0.011768397,-0.00770632,-0.003050655,0.001578365,0.005549179,0.008321822,0.00953818,0.009083236,0.007106098,0.003996836,0.00032301,-0.003263096,-0.00613052,-0.007770864,-0.007877821,-0.006392198,-0.003505923,0.00037425,0.004695789,0.008849359,0.012262109,0.01447979,0.015225073,0.014424397,0.012201688,0.008843165,0.004742079,0.000334759,-0.003960466,-0.007792049,-0.010905975,-0.013157105,-0.014503712,-0.014990519,-0.014726482,-0.013862806,-0.012574599,-0.011047029,-0.009464714,-0.008001921,-0.006811369,-0.006010806,-0.005668504,-0.005790678,-0.006314867,-0.007113051,-0.008006686,-0.008793252,-0.009280946,-0.009325646,-0.008862853,-0.007927427,-0.006655633,-0.005267056,-0.004027744,-0.003199764,-0.002985538,-0.003477204,-0.004621334,-0.006207584,-0.007886225,-0.00921458,-0.00972679,-0.009016202,-0.006815947,-0.003062063,0.002074651,0.008196956,0.014731205,0.021012317,0.026389196,0.030331028,0.032513595,0.032868031,0.031581657,0.029050372,0.025792365,0.022341216,0.019141004,0.016465485,0.014377987,0.012739523,0.011261859,0.009592401,0.007411019,0.004516789,0.000885474,-0.003314395,-0.007749504,-0.011986743,-0.015580306,-0.018161718,-0.019513578,-0.019611805,-0.018628222,-0.016893721,-0.014830354,-0.012866769,-0.011354491,-0.010502064,-0.010340272,-0.010725365,-0.011379622,-0.011961137,-0.012148754,-0.011724693,-0.010637303,-0.009029617,-0.007225504,-0.005673305,-0.004855403,-0.005179804,-0.006874885,-0.009909938,-0.013961394,-0.018437816,-0.022566693,-0.025534344,-0.026658688,-0.025565394,-0.022332805,-0.017571562,-0.012411616,-0.00838213,-0.00718721,-0.010400308,-0.019119094,-0.033637292,-0.053196675,-0.075878637,-0.09867935,-0.117786371,-0.129041118,-0.12853602,-0.113264145,-0.081719206,-0.034340346,0.02628854,0.095541998,0.167169616,0.233985404,0.288741828,0.325065696,0.338318022,0.326247616,0.289337512,0.230789381,0.156145999,0.072606339,-0.011866923,-0.089518891,-0.153715958,-0.199677186,-0.224930472,-0.229444291,-0.215435081,-0.186897223,-0.148939872,-0.107037455,-0.066305658,-0.030902462,-0.003627178,0.014245407,0.02289741,0.023703589,0.018833468,0.010796573,0.002007431,-0.005565446,-0.010623901,-0.012621048,-0.011707518,-0.008572454,-0.004221648,0.000260759,0.003924928,0.00611089,0.006529872,0.005268966,0.002729543,-0.000481148,-0.0036812,-0.006243878,-0.007705234,-0.007834536,-0.006659749,-0.004447722,-0.001645549,0.00120501,0.003564731,0.004989339,0.00520215,0.004135699,0.001936549,-0.001066163,-0.004421852,-0.007637866,-0.010263031,-0.011961089,-0.012562036,-0.012083545,-0.010720022,-0.008802288,-0.006735668,-0.004927556,-0.003716959,-0.003317877,-0.003785928,-0.005013631,-0.006754908,-0.008674362,-0.010412474,-0.011654856,-0.012192618,-0.011962193,-0.011056487,-0.009704537,-0.008223087,-0.006949383,-0.006168783,-0.006052409,-0.006618462,-0.007726095,-0.009103829,-0.01040685,-0.011290926,-0.011486745,-0.010858169,-0.009431424,-0.007388784,-0.005028291,-0.002698711,-0.000724264,0.000664201,0.001376738,0.001480573,0.001182173,0.000779545,0.000595408,0.000905711,0.001878669,0.003537193,0.005752673,0.008271685,0.010770448,0.012926047,0.014489721,0.015346543,0.015548084,0.015309762,0.014971755,0.01493019,0.015552223,0.017092828,0.019631648,0.023044522,0.027017076,0.031098461,0.034784185,0.037610176,0.039237509,0.039509398,0.038468528,0.03633212,0.033431863,0.030133706,0.026756622,0.023508927,0.020455963,0.017525155,0.01454572,0.011312546,0.00765869,0.003519528,-0.001026209,-0.005748088,-0.010290929,-0.014232472,-0.017160964,-0.018757908,-0.01886989,-0.017555041,-0.015093838,-0.011960048,-0.008754569,-0.00611181,-0.00459369,-0.004589551,-0.006240256,-0.009401464,-0.013654681,-0.018366324,-0.022786096,-0.026168331,-0.027895206,-0.027580003,-0.02513214,-0.020772884,-0.014999916,-0.008508284,-0.002082853,0.003518475,0.007671174,0.009963923,0.010241597,0.008608194,0.005393177,0.001089852,-0.00372256,-0.008460661,-0.012610974,-0.015787267,-0.017765143,-0.018491403,-0.018069141,-0.016722713,-0.014749315,-0.012465569,-0.010157965,-0.008045023,-0.006256608,-0.004832347,-0.003737204,-0.00288888,-0.002189566,-0.001554379,-0.000930477,-0.000303959,0.000304706,0.000852889,0.001290203,0.001569891,0.001653921,0.00151152,0.001113767,0.000428782,-0.000577802,-0.00193407,-0.003644857,-0.005670185,-0.007905541,-0.010171568,-0.012219619,-0.013756333,-0.014485749,-0.0141625,-0.012645864,-0.009942814,-0.00622941,-0.00184365,0.002751469,0.007029784,0.010478536,0.012676279,0.013358296,0.012457968,0.010117116,0.006664061,0.002563933,-0.001649621,-0.00544945,-0.008384442,-0.010133203,-0.010535073,-0.009596063,-0.007471743,-0.00443265,-0.000819965,0.003000265,0.00667722,0.009904859,0.012439067,0.014103519,0.014787622,0.014441078,0.013069314,0.010732473,0.007548312,0.003696767,-0.000577956,-0.004972613,-0.009141413,-0.012725317,-0.015392334,-0.016883495,-0.017056493,-0.015917914,-0.013635926,-0.010528249,-0.007024631,-0.003608004,-0.000742979,0.001196601,0.00198839,0.001599294,0.000192584,-0.00189817,-0.004225025,-0.006302697
0.001113767,0.000428782,-0.000577802,-0.00193407,-0.003644857,-0.005670185,-0.007905541,-0.010171568,-0.012219619,-0.013756333,-0.014485749,-0.0141625,-0.012645864,-0.009942814,-0.00622941,-0.00184365,0.002751469,0.007029784,0.010478536,0.012676279,0.013358296,0.012457968,0.010117116,0.006664061,0.002563933,-0.001649621,-0.00544945,-0.008384442,-0.010133203,-0.010535073,-0.009596063,-0.007471743,-0.00443265,-0.000819965,0.003000265,0.00667722,0.009904859,0.012439067,0.014103519,0.014787622,0.014441078,0.013069314,0.010732473,0.007548312,0.003696767,-0.000577956,-0.004972613,-0.009141413,-0.012725317,-0.015392334,-0.016883495,-0.017056493,-0.015917914,-0.013635926,-0.010528249,-0.007024631,-0.003608004,-0.000742979,0.001196601,0.00198839,0.001599294,0.000192584,-0.00189817,-0.004225025,-0.006302697,-0.00769383,-0.008087748,-0.007358576,-0.005591896,-0.003074431,-0.000247743,0.002366508,0.004256914,0.005012272,0.004394973,0.002384452,-0.000817297,-0.004819147,-0.009106987,-0.013130324,-0.016393406,-0.018534353,-0.019378393,-0.018956508,-0.01748738,-0.015327292,-0.012898121,-0.010606858,-0.008770851,-0.00756115,-0.006972719,-0.006825509,-0.006795459,-0.006470071,-0.005419816,-0.003274502,0.000206892,0.005083653,0.011206541,0.018221798,0.025606477,0.03273074,0.0389382,0.043632051,0.046353425,0.046839571,0.045052997,0.041178019,0.035587016,0.028783972,0.0213362,0.013806071,0.006692922,0.000391772,-0.004828806,-0.00883134,-0.011600883,-0.013228289,-0.013889546,-0.013823428,-0.013307739,-0.012633133,-0.012073596,-0.011854148,-0.012118672,-0.012903126,-0.014120807,-0.01556595,-0.016939606,-0.017897599,-0.0181154,-0.017360082,-0.015556219,-0.012831798,-0.009532014,-0.006193404,-0.003477195,-0.002068206,-0.002552885,-0.005295856,-0.010337686,-0.017336491,-0.02557198,-0.034022469,-0.041513898,-0.046926156,-0.049428238,-0.048702443,-0.045111785,-0.03976639,-0.034455231,-0.03142884,-0.033044506,-0.04131399,-0.057419756,-0.081283514,-0.111275609,-0.144142567,-0.175202568,-0.19881793,-0.209105769,-0.200801093,-0.170149595,-0.115688334,-0.038776508,0.056233018,0.162241128,0.270065139,0.369446308,0.450273146,0.503851464,0.524038158,0.508070968,0.456968808,0.375440247,0.271311006,0.154552969,0.036055559,-0.073684092,-0.165768242,-0.233840305,-0.274644422,-0.288147952,-0.277239316,-0.247075131,-0.204196488,-0.155558289,-0.107615334,-0.065586556,-0.032979954,-0.01141333,-0.000718292,0.000725125,-0.004496884,-0.01337644,-0.023000032,-0.030964953,-0.035650152,-0.036324049,-0.033099026,-0.026764042,-0.018540533,-0.009811494,-0.00186997,0.004277231,0.008029107,0.009227403,0.008118946,0.005261774,0.001399046,-0.002674604,-0.00623314,-0.008710776,-0.009757797,-0.009260026,-0.007326654,-0.004254158,-0.000474799,0.00350258,0.007153374,0.009995115,0.011639008,0.011831948,0.010485794,0.007690609,0.003709036,-0.001049579,-0.006074397,-0.010813739,-0.01474432,-0.017439948,-0.018629609,-0.018235625,-0.016385122,-0.013391953,-0.009710985,-0.005871283,-0.002398514,0.000261026,0.001802402,0.00209989,0.001214712,-0.00062802,-0.003088214,-0.005775987,-0.008320614,-0.010430306,-0.011932067,-0.012785216,-0.01306783,-0.012941072,-0.012600889,-0.012228789,-0.011952908,-0.011827418,-0.01183333,-0.011898202,-0.011927536,-0.011837983,-0.01158257,-0.011160862,-0.01061163,-0.00999081,-0.009341932,-0.008668517,-0.007917548,-0.006980152,-0.005710891,-0.003961862,-0.001623588,0.001337473,0.004854531,0.008756011,0.012783352,0.016628361,0.019983106,0.022592653,0.024300402,0.0250773,0.025029393,0.024382216,0.02344471,0.022558819,0.022043259,0.02214079,0.02297764,0.024541675,0.026682822,0.029135598,0.031559881,0.033592997,0.034904234,0.035242544,0.034469587,0.0325732,0.02966027,0.025932046,0.021648201,0.017087634,0.012513793,0.008150164,0.004168281,0.000687024,-0.002220851,-0.004520227,-0.006207855,-0.007311752,-0.007895297,-0.008062781,-0.007961717,-0.007777434,-0.007717401,-0.007985844,-0.00875239,-0.010120876,-0.012105253,-0.014618464,-0.017477581,-0.020425076,-0.02316275,-0.025392428,-0.02685653,-0.027372114,-0.026853703,-0.02532251,-0.022902013,-0.019801631,-0.01629143,-0.012671209,-0.009237337,-0.006250511,-0.003907424,-0.002319121,-0.001498621,-0.001359807,-0.001728668,-0.002366562,-0.003003403,-0.003376952,-0.003272951,-0.002560203,-0.001214958,0.000669748,0.002892083,0.00516648,0.007162869,0.008554896,0.009070288,0.008535802,0.006909531,0.004294802,0.000932418,-0.002828745,-0.006579183,-0.009907315,-0.012459908,-0.013994259,-0.014413099,-0.013775986,-0.012285153,-0.010248504,-0.008026736,-0.005974429,-0.004385829,-0.003454583,-0.003253439,-0.003735507,-0.004754306,-0.006096441,-0.007519174,-0.008785525,-0.009691639,-0.010084081,-0.009867733,-0.009006963,-0.007523467,-0.005493434,-0.003045022,-0.000355172,0.002356611,0.004840223,0.006834484,0.00809409,0.008421485,0.007699055,0.00591582,0.003182873,-0.000266785,-0.004095968,-0.007897663,-0.011242216,-0.013731328,-0.01505147,-0.015019058,-0.013610519,-0.010972143,-0.007407153,-0.003340482,0.000734971,0.004323818,0.006996273,0.008448658,0.00854661,0.007343528,0.005070497,0.002098676,-0.001120085,-0.004124675,-0.006516127,-0.008016912,-0.008508153,-0.008038921,-0.006806859,-0.005114627,-0.003310871,-0.001727004,-0.000621433,-0.000141142,-0.000307003,-0.001024578,-0.002117284,-0.003374496,-0.004604221,-0.005678943,-0.006564395,-0.007324316,-0.008099125
0.00516648,0.007162869,0.008554896,0.009070288,0.008535802,0.006909531,0.004294802,0.000932418,-0.002828745,-0.006579183,-0.009907315,-0.012459908,-0.013994259,-0.014413099,-0.013775986,-0.012285153,-0.010248504,-0.008026736,-0.005974429,-0.004385829,-0.003454583,-0.003253439,-0.003735507,-0.004754306,-0.006096441,-0.007519174,-0.008785525,-0.009691639,-0.010084081,-0.009867733,-0.009006963,-0.007523467,-0.005493434,-0.003045022,-0.000355172,0.002356611,0.004840223,0.006834484,0.00809409,0.008421485,0.007699055,0.00591582,0.003182873,-0.000266785,-0.004095968,-0.007897663,-0.011242216,-0.013731328,-0.01505147,-0.015019058,-0.013610519,-0.010972143,-0.007407153,-0.003340482,0.000734971,0.004323818,0.006996273,0.008448658,0.00854661,0.007343528,0.005070497,0.002098676,-0.001120085,-0.004124675,-0.006516127,-0.008016912,-0.008508153,-0.008038921,-0.006806859,-0.005114627,-0.003310871,-0.001727004,-0.000621433,-0.000141142,-0.000307003,-0.001024578,-0.002117284,-0.003374496,-0.004604221,-0.005678943,-0.006564395,-0.007324316,-0.008099125,-0.009062118,-0.010362083,-0.012064944,-0.014108239,-0.016280407,-0.018232159,-0.019520504,-0.019678808,-0.018300095,-0.015117244,-0.010063732,-0.003302105,0.004786129,0.013647664,0.022632564,0.031082951,0.03841851,0.044203524,0.048184693,0.050295533,0.050630104,0.04939467,0.046849464,0.043253447,0.03882299,0.033711326,0.02801063,0.02177361,0.015047649,0.007912304,0.000510713,-0.006933037,-0.014115618,-0.020676493,-0.026237541,-0.030453981,-0.033067666,-0.033952715,-0.033144031,-0.030841731,-0.027388538,-0.023222291,-0.018810932,-0.014581665,-0.010858258,-0.007819983,-0.005492082,-0.003771331,-0.002482444,-0.00145319,-0.000590328,6.38E-05,0.000311433,-0.000172333,-0.001764473,-0.004783014,-0.009363875,-0.015355363,-0.02226145,-0.029258814,-0.03529993,-0.039296912,-0.040361553,-0.038059915,-0.032628793,-0.02509954,-0.017283858,-0.011595934,-0.010713378,-0.017111403,-0.032534971,-0.057496006,-0.090892002,-0.129834824,-0.169753599,-0.204795795,-0.228501578,-0.234676343,-0.21834402,-0.176637723,-0.109480797,-0.0199326,0.085882491,0.199283675,0.309933264,0.407017463,0.480550986,0.522624093,0.52841479,0.496820783,0.430620283,0.336139214,0.222473671,0.100379545,-0.019013717,-0.125487695,-0.210846853,-0.269718123,-0.299949431,-0.302579645,-0.281414314,-0.24229443,-0.192181811,-0.138200102,-0.086764122,-0.042904984,-0.009859797,0.011050195,0.020272807,0.019665116,0.011999726,0.000425074,-0.012037669,-0.022895421,-0.030440512,-0.033850413,-0.033141067,-0.029004857,-0.022576367,-0.01517286,-0.008052536,-0.002223951,0.001673083,0.003408796,0.003133356,0.001291513,-0.001495926,-0.004559995,-0.007299058,-0.009265214,-0.010211866,-0.010100304,-0.009070163,-0.00738405,-0.005359694,-0.00330347,-0.00145716,3.41E-05,0.001129509,0.001878186,0.002387978,0.002786502,0.003182995,0.003638799,0.004151556,0.004654911,0.005032322,0.005141021,0.004840735,0.004021516,0.002625835,0.000661586,-0.001795492,-0.004609653,-0.007601386,-0.010569085,-0.013312652,-0.015655466,-0.017461719,-0.01864708,-0.019181952,-0.019087965,-0.018429494,-0.017302637,-0.015824079,-0.01412156,-0.01232654,-0.010568435,-0.008968984,-0.007635179,-0.006649874,-0.006060523,-0.005868012,-0.006018699,-0.006403134,-0.006864086,-0.007214718,-0.007265228,-0.006853851,-0.005876364,-0.004307817,-0.002211259,0.000269261,0.002930942,0.005545897,0.007899933,0.009828984,0.011246265,0.012155181,0.012645981,0.01287734,0.013046812,0.013355873,0.013975819,0.015020178,0.016527786,0.0184586,0.020702203,0.02309696,0.025456284,0.027597518,0.029368712,0.030668977,0.031459248,0.031761885,0.031649523,0.031225461,0.030599414,0.029863291,0.029071528,0.028229583,0.027292499,0.02617349,0.024760651,0.022938518,0.020610617,0.017719275,0.014259784,0.010287191,0.00591524,0.001308051,-0.003334091,-0.007793084,-0.011853501,-0.015323213,-0.018052111,-0.019946939,-0.020980518,-0.021194077,-0.020692227,-0.019631089,-0.018201137,-0.016607082,-0.015047467,-0.013696377,-0.01268901,-0.012111864,-0.011997525,-0.012323559,-0.01301501,-0.013950401,-0.014971506,-0.015897364,-0.016542564,-0.016738951,-0.016358581,-0.015334636,-0.013676309,-0.01147407,-0.008892999,-0.006154075,-0.003505839,-0.001190983,0.000586273,0.001686253,0.002048935,0.001696109,0.00072134,-0.000729115,-0.002479768,-0.004348933,-0.006167474,-0.00779125,-0.009107264,-0.010035117,-0.010526147,-0.010562399,-0.010156573,-0.009352703,-0.008226177,-0.006881124,-0.005443507,-0.004049312,-0.002828702,-0.001888448,-0.001295877,-0.001067703,-0.001166393,-0.001505338,-0.001962379,-0.002399675,-0.002686698,-0.00272261,-0.002454359,-0.001887489,-0.001087735,-0.000172774,0.000705069,0.001382952,0.001715091,0.001599477,0.000999188,-4.59E-05,-0.001419628,-0.00294403,-0.004405013,-0.005586676,-0.006307747,-0.006453734,-0.005998536,-0.00501097,-0.00364449,-0.002111609,-0.000647583,0.000529926,0.001257673,0.001453363,0.001127176,0.000376498,-0.000634758,-0.001708115,-0.002647785,-0.003296505,-0.003563689,-0.003441056,-0.003003007,-0.002391491,-0.001787659,-0.001374829,-0.00129903,-0.001634255,-0.002359343,-0.003351955,-0.004402436,-0.005246826,-0.005614375,-0.005281519,-0.0041222,-0.002144211,0.000496651,0.003508868,0.006503006,0.009048945,0.010742458,0.011269163,0.010454562,0.008291836,0.004943591,0.000718692,-0.003970468,-0.008662213,-0.012902552,-0.016297038,-0.01855183
-0.006881124,-0.005443507,-0.004049312,-0.002828702,-0.001888448,-0.001295877,-0.001067703,-0.001166393,-0.001505338,-0.001962379,-0.002399675,-0.002686698,-0.00272261,-0.002454359,-0.001887489,-0.001087735,-0.000172774,0.000705069,0.001382952,0.001715091,0.001599477,0.000999188,-4.59E-05,-0.001419628,-0.00294403,-0.004405013,-0.005586676,-0.006307747,-0.006453734,-0.005998536,-0.00501097,-0.00364449,-0.002111609,-0.000647583,0.000529926,0.001257673,0.001453363,0.001127176,0.000376498,-0.000634758,-0.001708115,-0.002647785,-0.003296505,-0.003563689,-0.003441056,-0.003003007,-0.002391491,-0.001787659,-0.001374829,-0.00129903,-0.001634255,-0.002359343,-0.003351955,-0.004402436,-0.005246826,-0.005614375,-0.005281519,-0.0041222,-0.002144211,0.000496651,0.003508868,0.006503006,0.009048945,0.010742458,0.011269163,0.010454562,0.008291836,0.004943591,0.000718692,-0.003970468,-0.008662213,-0.012902552,-0.016297038,-0.01855183,-0.019500846,-0.019118165,-0.017516408,-0.014932614,-0.011703302,-0.008230459,-0.004940435,-0.002238388,-0.00046197,0.000160988,-0.000454681,-0.002233413,-0.004939688,-0.008199448,-0.011540888,-0.014450199,-0.016435076,-0.017087181,-0.016134541,-0.013476194,-0.009194084,-0.003540749,0.003094887,0.010237949,0.017386199,0.024067741,0.029889238,0.034567987,0.037944205,0.039973463,0.040702772,0.040236702,0.038701525,0.036215359,0.032870641,0.028732205,0.023850495,0.018285743,0.012136191,0.005562218,-0.001201117,-0.007848233,-0.014025396,-0.019368744,-0.02355183,-0.026334016,-0.027600361,-0.027384708,-0.025870451,-0.023367401,-0.020267571,-0.016986761,-0.013901858,-0.011295117,-0.009316099,-0.007969297,-0.007131113,-0.006594315,-0.006132329,-0.00557075,-0.004850393,-0.004066101,-0.003468757,-0.003424621,-0.004335187,-0.006530751,-0.010159538,-0.01509935,-0.020918331,-0.026904745,-0.03217308,-0.035837183,-0.037223827,-0.036085825,-0.032766256,-0.028267292,-0.024189331,-0.022527435,-0.025339315,-0.034327211,-0.05039976,-0.073293895,-0.10133743,-0.131418546,-0.159200052,-0.17957787,-0.187340496,-0.17794655,-0.148308221,-0.097455521,-0.026963553,0.05894719,0.153682288,0.248905538,0.335462867,0.40447933,0.448477518,0.462355946,0.444081936,0.394993219,0.319659931,0.225324462,0.120999988,0.016358859,-0.079428836,-0.158742939,-0.21630603,-0.249624212,-0.25903598,-0.247389814,-0.219424823,-0.180967115,-0.138072349,-0.096240852,-0.059808228,-0.031577204,-0.012712934,-0.002881799,-0.000579602,-0.003573445,-0.009374556,-0.015666171,-0.020628452,-0.023127051,-0.022758467,-0.019769143,-0.014882924,-0.009080845,-0.003377877,0.001365594,0.004571966,0.006003244,0.005749462,0.004162776,0.001757983,-0.000897908,-0.003286827,-0.005016622,-0.005865702,-0.005793834,-0.004922948,-0.00349552,-0.001819951,-0.000212655,0.00105421,0.001792142,0.001917851,0.001454776,0.000515462,-0.000731109,-0.002100466,-0.003433323,-0.004627295,-0.005652614,-0.006548203,-0.007398973,-0.008299852,-0.009315629,-0.010447268,-0.011614215,-0.01265864,-0.013372218,-0.013540274,-0.012993424,-0.011654455,-0.009568859,-0.006910958,-0.003963237,-0.001072728,0.001406363,0.003171557,0.004020222,0.003877464,0.002799264,0.000952078,-0.001424808,-0.004064656,-0.006716117,-0.009175013,-0.011300082,-0.01301216,-0.014280337,-0.015101455,-0.015480264,-0.015416534,-0.014902779,-0.01393276,-0.012517429,-0.010702458,-0.008580521,-0.006292471,-0.004014252,-0.001930193,-0.000197397,0.00109095,0.001934114,0.002435897,0.002795137,0.003274262,0.004150839,0.005661475,0.00794988,0.011030613,0.01477691,0.018935808,0.023167715,0.027102108,0.030397639,0.032794308,0.034147708,0.034439955,0.033767496,0.032311172,0.03029723,0.027958886,0.025506301,0.023109322,0.020893027,0.018942443,0.017310733,0.016025153,0.015087114,0.014465914,0.014089028,0.013834296,0.013529875,0.012966435,0.011922912,0.010203143,0.007676989,0.004317134,0.000222426,-0.004379435,-0.009153181,-0.013699598,-0.017614923,-0.020555669,-0.022296761,-0.022771552,-0.022085352,-0.020498949,-0.018384305,-0.016160059,-0.014218571,-0.012858125,-0.012233169,-0.012332171,-0.012987334,-0.013914131,-0.01477265,-0.015238317,-0.015067735,-0.014146531,-0.012510075,-0.010333773,-0.007896094,-0.005523019,-0.003526023,-0.002146308,-0.001515818,-0.001641225,-0.002411827,-0.003627329,-0.005037992,-0.006388188,-0.007455103,-0.008076712,-0.008166299,-0.007713934,-0.006777621,-0.005467921,-0.003929834,-0.002324811,-0.000814578,0.000452657,0.00135369,0.001799733,0.001743795,0.001185711,0.000174225,-0.001194539,-0.002782787,-0.004421198,-0.005923398,-0.007104201,-0.007800577,-0.007893577,-0.007328799,-0.00613222,-0.0044179,-0.002384295,-0.000297081,0.001541552,0.002834428,0.003336188,0.002897574,0.001498552,-0.000737374,-0.003552466,-0.006588116,-0.009437829,-0.011711028,-0.013096142,-0.01341105,-0.012631117,-0.01088942,-0.008449297,-0.005654932,-0.002869981,-0.000416345,0.00147528,0.002694392,0.003255075,0.003276844,0.002947626,0.002477648,0.002054167,0.001805947,0.001783742,0.001959353,0.002241941,0.002506982,0.002631057,0.002524952,0.002158231,0.001570404,0.000866583,0.000198565,-0.000264878,-0.000372679,-2.44E-05,0.000805354,0.002054885,0.003579753,0.005171336,0.00658729,0.007588205,0.00797415,0.00761499,0.006469754,0.004592503,0.002124603,-0.000724531,-0.00370463,-0.006555489,-0.009037564,-0.010958935,-0.012196175,-0.012707485,-0.012536978,-0.011809385,-0.010714941,-0.009485037
-0.007893577,-0.007328799,-0.00613222,-0.0044179,-0.002384295,-0.000297081,0.001541552,0.002834428,0.003336188,0.002897574,0.001498552,-0.000737374,-0.003552466,-0.006588116,-0.009437829,-0.011711028,-0.013096142,-0.01341105,-0.012631117,-0.01088942,-0.008449297,-0.005654932,-0.002869981,-0.000416345,0.00147528,0.002694392,0.003255075,0.003276844,0.002947626,0.002477648,0.002054167,0.001805947,0.001783742,0.001959353,0.002241941,0.002506982,0.002631057,0.002524952,0.002158231,0.001570404,0.000866583,0.000198565,-0.000264878,-0.000372679,-2.44E-05,0.000805354,0.002054885,0.003579753,0.005171336,0.00658729,0.007588205,0.00797415,0.00761499,0.006469754,0.004592503,0.002124603,-0.000724531,-0.00370463,-0.006555489,-0.009037564,-0.010958935,-0.012196175,-0.012707485,-0.012536978,-0.011809385,-0.010714941,-0.009485037,-0.008360449,-0.007555581,-0.007223667,-0.007428835,-0.008130841,-0.009186808,-0.01037162,-0.011415084,-0.012050409,-0.012065723,-0.011349007,-0.009917362,-0.007923886,-0.005639296,-0.003410021,-0.001598951,-0.000518608,-0.000368408,-0.001187616,-0.002833476,-0.004990041,-0.007208144,-0.008971473,-0.009778747,-0.009228568,-0.007092197,-0.003360822,0.001742287,0.007788436,0.014205682,0.020366441,0.025685134,0.029707989,0.032178036,0.033062769,0.032539228,0.03093987,0.028670804,0.026119943,0.023574876,0.021168216,0.018862168,0.016475329,0.013745247,0.010412202,0.00630479,0.001407445,-0.004106033,-0.009881374,-0.015434263,-0.020232371,-0.023792255,-0.025771173,-0.026034926,-0.024687651,-0.02205714,-0.018638056,-0.015003669,-0.011702947,-0.009162832,-0.007614857,-0.007060889,-0.007285549,-0.007913825,-0.008503329,-0.008653091,-0.008106445,-0.006825436,-0.00501871,-0.003113395,-0.001672805,-0.001273631,-0.002366319,-0.005148314,-0.009480133,-0.014868242,-0.020527112,-0.02551743,-0.028940977,-0.030158357,-0.02898653,-0.025831387,-0.021717418,-0.018191533,-0.017099356,-0.020256578,-0.029061074,-0.04410911,-0.064887296,-0.089608331,-0.115242317,-0.137767921,-0.152632515,-0.155372968,-0.142315481,-0.111250066,-0.061968154,0.003436777,0.080576027,0.163106377,0.243379164,0.313321207,0.365429903,0.393741244,0.394628215,0.367309126,0.31398741,0.239599672,0.151207857,0.057124667,-0.034100229,-0.114687987,-0.178492847,-0.221606577,-0.242636431,-0.242639999,-0.224751897,-0.193579867,-0.154475322,-0.112792211,-0.073238533,-0.039400068,-0.013481339,0.003728817,0.012694107,0.014823004,0.012083627,0.006610347,0.000361895,-0.0051267,-0.008877618,-0.010490044,-0.010065078,-0.008066564,-0.005153426,-0.002017105,0.000749646,0.002736915,0.003750319,0.003797735,0.003042577,0.001739521,0.00016839,-0.00142103,-0.002845177,-0.004001068,-0.004860704,-0.005450986,-0.005826473,-0.006042638,-0.006136005,-0.006115224,-0.005964136,-0.005654874,-0.005166512,-0.004503401,-0.003707334,-0.002859196,-0.002068511,-0.00145259,-0.001110059,-0.0010955,-0.00140218,-0.001958255,-0.002638637,-0.003290805,-0.003769149,-0.003969986,-0.003858817,-0.003482924,-0.002965645,-0.002482885,-0.002226506,-0.002362303,-0.002991594,-0.004124727,-0.005672305,-0.007456283,-0.009239029,-0.010764946,-0.011806876,-0.012208665,-0.011916048,-0.010990085,-0.009600436,-0.007999217,-0.006479483,-0.005325123,-0.004760596,-0.004909262,-0.005767862,-0.007202165,-0.008965126,-0.010734909,-0.01216634,-0.012946766,-0.012846318,-0.011753615,-0.009690743,-0.006805402,-0.003342496,0.000398763,0.004113802,0.007538703,0.010485625,0.012862651,0.014676402,0.016018937,0.017042809,0.017929373,0.018855568,0.019963704,0.021337709,0.022988228,0.024848013,0.026778246,0.028585556,0.030048403,0.030950049,0.031113899,0.030435746,0.028907014,0.026623834,0.023778785,0.020635172,0.017487301,0.014613305,0.012229152,0.010452645,0.00928454,0.008610572,0.008224013,0.00786431,0.007264352,0.006197605,0.004516906,0.002178805,-0.000749599,-0.004101133,-0.007633487,-0.011063861,-0.014107833,-0.016516984,-0.018110522,-0.018797183,-0.018584993,-0.017577858,-0.015959566,-0.013967418,-0.011859263,-0.009878898,-0.008225232,-0.007030148,-0.006348444,-0.006160969,-0.006389456,-0.006919234,-0.00762461,-0.008391544,-0.009133344,-0.009797212,-0.010361865,-0.010828541,-0.011208956,-0.011513868,-0.011745029,-0.011891871,-0.011932695,-0.011839108,-0.011581959,-0.011137309,-0.010491557,-0.009645488,-0.008617366,-0.007445138,-0.00618742,-0.004922451,-0.003743975,-0.002753232,-0.002047013,-0.001702864,-0.001763736,-0.002225187,-0.003028433,-0.00406181,-0.005171765,-0.006182519,-0.006921611,-0.007247017,-0.007070903,-0.00637547,-0.005217738,-0.003722141,-0.002062138,-0.000434024,0.000972502,0.002002067,0.002555169,0.002600411,0.002175951,0.001380575,0.00035641,-0.000733599,-0.001729677,-0.002497019,-0.002942325,-0.003023093,-0.002749021,-0.002176238,-0.001396197,-0.000521675,0.000327618,0.0010379,0.001511649,0.001675341,0.001485254,0.000932047,4.44E-05,-0.001109077,-0.00242058,-0.003749268,-0.00493332,-0.005808563,-0.006231695,-0.006104424,-0.005393562,-0.004142036,-0.002467208,-0.000545485,0.00141458,0.003205583,0.004654062,0.005645829,0.006138591,0.00615967,0.00579028,0.005140962,0.004324672,0.003434142,0.002528511,0.001631403,0.000739399,-0.000162791,-0.001085649,-0.002021733,-0.002939752,-0.003787088,-0.00449959,-0.005015527,-0.005289732,-0.005304226,-0.005072856,-0.004639211,-0.004068791,-0.003437697,-0.002820602,-0.002280589,-0.00186261,-0.001591241,-0.001472343
-0.002942325,-0.003023093,-0.002749021,-0.002176238,-0.001396197,-0.000521675,0.000327618,0.0010379,0.001511649,0.001675341,0.001485254,0.000932047,4.44E-05,-0.001109077,-0.00242058,-0.003749268,-0.00493332,-0.005808563,-0.006231695,-0.006104424,-0.005393562,-0.004142036,-0.002467208,-0.000545485,0.00141458,0.003205583,0.004654062,0.005645829,0.006138591,0.00615967,0.00579028,0.005140962,0.004324672,0.003434142,0.002528511,0.001631403,0.000739399,-0.000162791,-0.001085649,-0.002021733,-0.002939752,-0.003787088,-0.00449959,-0.005015527,-0.005289732,-0.005304226,-0.005072856,-0.004639211,-0.004068791,-0.003437697,-0.002820602,-0.002280589,-0.00186261,-0.001591241,-0.001472343,-0.001497431,-0.001649196,-0.001906674,-0.002248911,-0.002656622,-0.003111917,-0.003596753,-0.004091103,-0.004571892,-0.005013583,-0.005390735,-0.005682256,-0.005876359,-0.005974747,-0.005994462,-0.005966251,-0.005929177,-0.005922376,-0.005975982,-0.00610389,-0.006300919,-0.006545977,-0.006811185,-0.007074942,-0.007335275,-0.007619001,-0.007982622,-0.008502556,-0.009254951,-0.01028833,-0.011594857,-0.013087415,-0.014589346,-0.015841697,-0.016529321,-0.016323139,-0.014932102,-0.012155866,-0.007928502,-0.002344902,0.00433545,0.011708633,0.019267525,0.026457849,0.032740611,0.037651975,0.040852499,0.042159733,0.041560888,0.039205147,0.035377908,0.030461299,0.024886735,0.019085862,0.013445985,0.0082751,0.003780086,5.96E-05,-0.002888897,-0.00515038,-0.006865799,-0.008202427,-0.009325603,-0.010375524,-0.011451332,-0.012603211,-0.013831739,-0.015092852,-0.016306458,-0.017366999,-0.018154962,-0.018549069,-0.018439451,-0.017742194,-0.016415261,-0.014474856,-0.012010203,-0.009193571,-0.006281748,-0.003605166,-0.001541961,-0.000476279,-0.000743136,-0.002565666,-0.005994061,-0.010858202,-0.016746988,-0.023025965,-0.028900579,-0.033525215,-0.036148853,-0.036278146,-0.033830047,-0.029241037,-0.023500766,-0.018085542,-0.014781721,-0.015408769,-0.021473557,-0.033806971,-0.052246829,-0.075433662,-0.100776048,-0.124620215,-0.142627024,-0.150323357,-0.143760358,-0.120184694,-0.078616487,-0.020232348,0.051525554,0.131155767,0.211613495,0.285081496,0.343898554,0.38151924,0.393368809,0.377468334,0.334736261,0.268918659,0.186154486,0.094235482,0.001664602,-0.08335501,-0.153860696,-0.204874521,-0.233857519,-0.240826202,-0.228134881,-0.19997566,-0.161685684,-0.118972779,-0.077173626,-0.040643876,-0.012350962,0.006296362,0.015385931,0.016245165,0.011050748,0.002378439,-0.007234169,-0.01565063,-0.021382133,-0.023698217,-0.022605135,-0.018714537,-0.013038447,-0.006752817,-0.000971048,0.003438084,0.00596506,0.006497365,0.005284431,0.002845208,-0.000158637,-0.003057914,-0.005295266,-0.006510041,-0.006578208,-0.005605822,-0.003882728,-0.001809185,0.00018874,0.001739164,0.002586478,0.002626732,0.001912858,0.000631586,-0.000941613,-0.002500089,-0.0037652,-0.004536583,-0.004724944,-0.004362179,-0.003587816,-0.002615174,-0.001684458,-0.001012503,-0.000749504,-0.000951561,-0.001574484,-0.002489655,-0.003517854,-0.004473007,-0.005205622,-0.005635949,-0.005769463,-0.005691626,-0.005543805,-0.005486669,-0.005660073,-0.006148905,-0.006962503,-0.008031671,-0.009223,-0.010366291,-0.011288297,-0.011845223,-0.011947527,-0.011572893,-0.010766234,-0.009628255,-0.008296019,-0.006919753,-0.005639948,-0.00456792,-0.003771881,-0.003269488,-0.003027062,-0.002965112,-0.002969451,-0.002906785,-0.00264324,-0.002063791,-0.001090129,0.000305623,0.002093723,0.004187792,0.006454529,0.008731364,0.01084993,0.012662097,0.014064625,0.015018305,0.015557945,0.015790542,0.015880658,0.016023954,0.016412078,0.017194117,0.018441258,0.020121797,0.02209267,0.024111363,0.025868444,0.027036713,0.027328992,0.026553833,0.024657735,0.021744284,0.018064823,0.013980891,0.009904752,0.006229199,0.003260445,0.001167545,-4.16E-05,-0.000512867,-0.000509877,-0.000356071,-0.000368246,-0.000794412,-0.001768362,-0.003289153,-0.005228336,-0.007362138,-0.009421029,-0.011146183,-0.012341603,-0.012912127,-0.01288066,-0.012382099,-0.011635739,-0.010901703,-0.010429624,-0.010409003,-0.010930319,-0.011964059,-0.01336176,-0.014879221,-0.016218105,-0.017078664,-0.017214159,-0.016477096,-0.014848808,-0.01244702,-0.009510145,-0.006361369,-0.003359165,-0.00084306,0.000916178,0.001754112,0.001632819,0.000641793,-0.001019105,-0.003070852,-0.005195261,-0.007077938,-0.008448703,-0.009114846,-0.008983771,-0.008072772,-0.00650499,-0.00449196,-0.00230459,-0.000236011,0.001438904,0.00250162,0.002819767,0.002363811,0.001207752,-0.000486189,-0.002495843,-0.004574762,-0.006488349,-0.008043733,-0.009108457,-0.009615948,-0.009558988,-0.008975164,-0.007929716,-0.006501083,-0.004772821,-0.002832917,-0.000778797,0.001275814,0.003196835,0.004832564,0.006025281,0.006631114,0.006544935,0.005725129,0.00421236,0.002137131,-0.000287173,-0.002786349,-0.005060146,-0.006824688,-0.007855677,-0.008024867,-0.007323034,-0.005864672,-0.003872674,-0.001644772,0.000493085,0.002238593,0.003361137,0.003737379,0.003367933,0.002372195,0.000962571,-0.000596675,-0.002037829,-0.003136084,-0.003745296,-0.003817077,-0.003400797,-0.002625959,-0.00167176,-0.000730694,2.65E-05,0.000477974,0.000566742,0.000302641,-0.000247103,-0.000976421,-0.00176351,-0.002494058,-0.003080652,-0.003475398,-0.003674093,-0.003711644,-0.00364979,-0.003559446,-0.003501003,-0.00350657,-0.003568092,-0.003634527,-0.003619621,-0.00341963,-0.002937929,-0.002111457
0.003367933,0.002372195,0.000962571,-0.000596675,-0.002037829,-0.003136084,-0.003745296,-0.003817077,-0.003400797,-0.002625959,-0.00167176,-0.000730694,2.65E-05,0.000477974,0.000566742,0.000302641,-0.000247103,-0.000976421,-0.00176351,-0.002494058,-0.003080652,-0.003475398,-0.003674093,-0.003711644,-0.00364979,-0.003559446,-0.003501003,-0.00350657,-0.003568092,-0.003634527,-0.003619621,-0.00341963,-0.002937929,-0.002111457,-0.000932983,0.000536471,0.002168819,0.003784577,0.005180542,0.006164137,0.006587413,0.006373752,0.0055319,0.00415485,0.002404302,0.000484302,-0.001390545,-0.003026447,-0.004276324,-0.005056821,-0.005354959,-0.005224682,-0.004774777,-0.004150318,-0.003510067,-0.00300241,-0.002742583,-0.002794181,-0.003158032,-0.003771136,-0.004517261,-0.005248844,-0.005817404,-0.006107152,-0.00606483,-0.0057185,-0.005179585,-0.004625713,-0.004266232,-0.004296621,-0.004851264,-0.005965287,-0.007554933,-0.009422418,-0.011286167,-0.012831783,-0.013774392,-0.013920018,-0.013213181,-0.011759992,-0.00982034,-0.007768524,-0.00602786,-0.004990105,-0.004934173,-0.005959572,-0.007948152,-0.010563206,-0.013288496,-0.015502422,-0.01657581,-0.015976881,-0.013364975,-0.008656099,-0.002048158,0.005999045,0.01482562,0.023664095,0.03174597,0.038403493,0.043149435,0.045722623,0.046094231,0.044437744,0.041072329,0.036393669,0.030807366,0.024677685,0.018299533,0.011895365,0.005632693,-0.000346617,-0.005896131,-0.010843984,-0.014988644,-0.018114079,-0.020022109,-0.020575308,-0.019740886,-0.017624941,-0.014487663,-0.010733068,-0.006871321,-0.00345682,-0.001010185,6.38E-05,-0.000451963,-0.002538982,-0.005930667,-0.010140823,-0.014532387,-0.018417852,-0.02117612,-0.022365894,-0.021814304,-0.019662159,-0.01635366,-0.012568008,-0.009101406,-0.006718422,-0.005999598,-0.007215487,-0.010255138,-0.014629024,-0.019553669,-0.024109541,-0.02744801,-0.029010091,-0.028712334,-0.027055522,-0.025120837,-0.024435239,-0.026710952,-0.033489543,-0.045744667,-0.063514318,-0.085639148,-0.109675333,-0.132028268,-0.148319168,-0.153955622,-0.144836079,-0.118085253,-0.072699518,-0.00998365,0.066315794,0.150232266,0.234152519,0.309679197,0.368669162,0.404299543,0.412002507,0.390124897,0.340208092,0.266840395,0.177099407,0.079664504,-0.016270799,-0.102128087,-0.170953138,-0.218165382,-0.241951874,-0.243267316,-0.225462861,-0.193621403,-0.153716921,-0.111734398,-0.072882755,-0.041008243,-0.018275251,-0.00513344,-0.000543105,-0.002392619,-0.008018314,-0.014731002,-0.020263773,-0.02307931,-0.022506242,-0.01870664,-0.012504937,-0.005127828,0.002087054,0.007958771,0.011663996,0.012845826,0.011624535,0.00852199,0.004324478,-8.43E-05,-0.003887729,-0.006470624,-0.007504657,-0.006976289,-0.005159241,-0.002542087,0.000272564,0.002678258,0.004165956,0.004401475,0.003269535,0.000880935,-0.002454688,-0.006283306,-0.010077831,-0.01331488,-0.015546207,-0.01645608,-0.015898774,-0.013913437,-0.010716385,-0.006673215,-0.002254741,0.002018092,0.005634504,0.00815321,0.009254624,0.008780146,0.00675368,0.003382091,-0.000966455,-0.005804673,-0.010584363,-0.01476365,-0.017874531,-0.0195815,-0.019722982,-0.018329584,-0.015616571,-0.011951775,-0.007803857,-0.003678625,-5.27E-05,0.00268593,0.004283158,0.00464334,0.003832033,0.002057301,-0.000366267,-0.003064884,-0.005657126,-0.007802675,-0.009242085,-0.009823111,-0.009511265,-0.008384511,-0.00661407,-0.004434937,-0.002110684,0.000102579,0.001988662,0.003396674,0.004257112,0.004587785,0.004489827,0.004134901,0.00374513,0.003567578,0.003845185,0.004786366,0.006535824,0.009149611,0.012577822,0.016658224,0.021123443,0.025622833,0.029758082,0.033129112,0.035384596,0.036269851,0.035664488,0.033603261,0.030275935,0.026005339,0.021206382,0.016332104,0.011814973,0.00801236,0.005164254,0.003369018,0.002579864,0.002621353,0.003222185,0.004058399,0.00480005,0.00515459,0.004901368,0.003913555,0.00216605,-0.000269846,-0.003242415,-0.006542423,-0.009928835,-0.013153696,-0.015983592,-0.018216531,-0.019694418,-0.020312242,-0.02002527,-0.018855024,-0.016893669,-0.014305146,-0.011320491,-0.008224696,-0.005333519,-0.002960723,-0.001378897,-0.000779528,-0.001239592,-0.002701973,-0.004975283,-0.007755271,-0.010665859,-0.013313666,-0.015346892,-0.016508157,-0.016671892,-0.015859666,-0.014231041,-0.012052078,-0.009647609,-0.007346085,-0.005426731,-0.004077859,-0.003372789,-0.003266508,-0.003612471,-0.00419568,-0.004775637,-0.005131456,-0.005101364,-0.004610053,-0.003679475,-0.002421606,-0.001014788,0.000331841,0.001419146,0.002096274,0.002289026,0.002012673,0.001366535,0.000511231,-0.000366947,-0.001097306,-0.001563157,-0.001729215,-0.001652037,-0.001470915,-0.001380609,-0.00159096,-0.002281099,-0.003557007,-0.005420647,-0.007756744,-0.010340161,-0.012863232,-0.014978984,-0.016353469,-0.016718838,-0.015918474,-0.013936608,-0.010907182,-0.007099944,-0.00288553,0.001315237,0.005089779,0.008090471,0.01008039,0.01096077,0.010776133,0.009697092,0.007984855,0.005944603,0.00387654,0.002033259,0.000590147,-0.000367588,-0.000841242,-0.000901476,-0.000663034,-0.000257338,0.0001917,0.000585008,0.000857346,0.000978483,0.000948472,0.000789546,0.000537012,0.000230905,-9.06E-05,-0.000395756,-0.00066158,-0.000874631,-0.001030048,-0.001129455,-0.001178148,-0.001182251,-0.00114665,-0.001074432,-0.00096817,-0.000832878,-0.000679786,-0.000529661,-0.000414275,-0.00037493,-0.00045766,-0.000705578,-0.001149656
-0.00114665,-0.001074432,-0.00096817,-0.000832878,-0.000679786,-0.000529661,-0.000414275,-0.00037493,-0.00045766,-0.000705578,-0.001149656,-0.001799706,-0.002637458,-0.00361321,-0.004646934,-0.005633928,-0.0064544,-0.006985902,-0.007117295,-0.006762828,-0.005874993,-0.00445482,-0.002558308,-0.000297735,0.002163205,0.004621003,0.006850439,0.008627854,0.009757121,0.010094894,0.009571309,0.008202623,0.006093324,0.003426888,0.000446215,-0.002573536,-0.005355858,-0.007653331,-0.009273739,-0.010099021,-0.010095453,-0.009314648,-0.007885935,-0.006001221,-0.003893864,-0.001813322,2.27E-06,0.00135298,0.002100402,0.002184103,0.001628408,0.000537658,-0.000920099,-0.002538904,-0.004106103,-0.005433525,-0.00638297,-0.006881476,-0.006923986,-0.006563922,-0.005894786,-0.005027801,-0.004071047,-0.003114657,-0.0022245,-0.001444194,-0.000802963,-0.000325371,-3.89E-05,2.38E-05,-0.000171514,-0.000651903,-0.001426472,-0.002477525,-0.003756737,-0.005188448,-0.006680063,-0.008137533,-0.009482363,-0.010665965,-0.011677503,-0.012542704,-0.013312991,-0.01404646,-0.014784153,-0.015526457,-0.016214935,-0.016724415,-0.016868665,-0.016420669,-0.015145771,-0.012843131,-0.009388724,-0.004771907,0.000882157,0.007310034,0.014130072,0.020883347,0.027089682,0.032309574,0.036201189,0.038562147,0.039348507,0.038667769,0.036747866,0.03388883,0.030407145,0.026583882,0.022626447,0.018650495,0.014684023,0.010690988,0.006607874,0.002384385,-0.00198095,-0.006417939,-0.010779415,-0.014854511,-0.01839789,-0.021169208,-0.02297522,-0.023706365,-0.023360651,-0.022049861,-0.019986315,-0.017452048,-0.014755765,-0.012185672,-0.009967513,-0.008236656,-0.007030465,-0.006303015,-0.005959036,-0.005898993,-0.006063629,-0.006465234,-0.007194991,-0.008400848,-0.010237744,-0.012799972,-0.016052267,-0.019779762,-0.023576135,-0.026883352,-0.029086209,-0.02965196,-0.028292288,-0.02511457,-0.020724548,-0.016245062,-0.01322607,-0.013438926,-0.018570374,-0.02985508,-0.047705328,-0.071408121,-0.098959874,-0.127095258,-0.151540321,-0.167483906,-0.170221297,-0.155887124,-0.122168084,-0.068876334,0.001725119,0.084922992,0.173911229,0.260480467,0.335959042,0.392280147,0.42302357,0.424278356,0.395195702,0.338146086,0.258453619,0.163744283,0.063002365,-0.034528206,-0.120440636,-0.188107805,-0.23334633,-0.254724393,-0.253492062,-0.23316983,-0.198879289,-0.156531848,-0.112002991,-0.070410317,-0.035586509,-0.009799506,0.006271136,0.013332864,0.013115598,0.00792309,0.000181565,-0.00794418,-0.014818346,-0.019463004,-0.021552527,-0.021299895,-0.01927546,-0.016203709,-0.012779605,-0.009535153,-0.006771923,-0.004559737,-0.002788674,-0.001252984,0.000257442,0.001880071,0.003632878,0.005404688,0.006981017,0.008096352,0.008499234,0.008015058,0.006593103,0.00432834,0.001454022,-0.001693069,-0.004727646,-0.007280453,-0.009059985,-0.009899768,-0.009782538,-0.008837139,-0.007309289,-0.005512382,-0.003768341,-0.00235025,-0.001437939,-0.001094679,-0.001268612,-0.001817208,-0.002548269,-0.003267762,-0.003823741,-0.004137044,-0.004212831,-0.004131587,-0.00402283,-0.004028433,-0.004264412,-0.00478997,-0.005590611,-0.006578814,-0.007611827,-0.00852237,-0.009155321,-0.009402124,-0.009225123,-0.008666132,-0.007836943,-0.006893514,-0.005999426,-0.005286999,-0.004825504,-0.004604771,-0.004539222,-0.004492531,-0.00431784,-0.003903864,-0.003214776,-0.002312215,-0.00135129,-0.000548585,-0.000127385,-0.00025195,-0.000966813,-0.002157485,-0.003545206,-0.004721118,-0.005216134,-0.004593943,-0.002548236,0.001016951,0.005942344,0.01181573,0.018023585,0.023844033,0.028564525,0.031602524,0.032606728,0.031520073,0.028592991,0.024344612,0.019478999,0.01477133,0.010943835,0.008552546,0.007903515,0.009011596,0.011607355,0.01518944,0.019112226,0.022693015,0.025320285,0.026544979,0.026140342,0.024121799,0.020725662,0.016352777,0.011489205,0.006619553,0.002149031,-0.001652331,-0.004674959,-0.006962619,-0.008677387,-0.010046277,-0.011301777,-0.012628625,-0.014126657,-0.015795346,-0.017540727,-0.019200862,-0.020582792,-0.021502521,-0.021820042,-0.021463455,-0.020439067,-0.018827431,-0.016767819,-0.014435303,-0.012015259,-0.009679828,-0.007569878,-0.005784555,-0.004378952,-0.003368855,-0.002740344,-0.002461226,-0.002491241,-0.002788541,-0.003311223,-0.00401428,-0.004843938,-0.005732359,-0.00659592,-0.007339372,-0.007866478,-0.008095622,-0.007977015,-0.007507064,-0.006735704,-0.005763819,-0.004730174,-0.003789729,-0.003087311,-0.002731709,-0.002775205,-0.003202413,-0.003930404,-0.004820039,-0.005696552,-0.006376169,-0.006694855,-0.006535221,-0.005847855,-0.004663934,-0.003096693,-0.001330427,0.000402807,0.001856739,0.002810437,0.003107723,0.002689112,0.001609184,3.42E-05,-0.001782045,-0.003540367,-0.004950695,-0.005786716,-0.005929978,-0.005393072,-0.004316055,-0.002936044,-0.001536101,-0.000384397,0.000322876,0.000502094,0.000197238,-0.000433838,-0.001158625,-0.001725668,-0.001924256,-0.001634912,-0.000859732,0.000273832,0.001536458,0.002642773,0.003310147,0.003318664,0.002560425,0.001068446,-0.000980678,-0.003291345,-0.005496718,-0.007221409,-0.008147878,-0.008074433,-0.006953974,-0.00490587,-0.002198251,0.000796519,0.003665194,0.006024078,0.007583308,0.008192916,0.007862236,0.006749628,0.005125402,0.003316039,0.001641223,0.00035604,-0.000390948,-0.000576805,-0.00029845,0.00025514,0.000845942,0.00123608,0.001233837,0.000728612,-0.000290394,-0.001733713,-0.003428223,-0.005147179
-0.000390948,-0.000576805,-0.00029845,0.00025514,0.000845942,0.00123608,0.001233837,0.000728612,-0.000290394,-0.001733713,-0.003428223,-0.005147179,-0.006648387,-0.007714466,-0.008189232,-0.008004879,-0.007195855,-0.005896958,-0.004325233,-0.002747528,-0.001437944,-0.000631389,-0.000480747,-0.001025263,-0.0021765,-0.003725671,-0.005372581,-0.006772578,-0.007594373,-0.007579233,-0.00659127,-0.004649621,-0.001936094,0.001224159,0.004406812,0.007150982,0.009030568,0.00972291,0.009063463,0.007077266,0.003981527,0.000158264,-0.003899219,-0.007657891,-0.01062342,-0.012413044,-0.012811279,-0.011799667,-0.009556007,-0.006423611,-0.002856015,0.00065346,0.00364562,0.005760915,0.006786422,0.006677677,0.005553117,0.003663544,0.001342949,-0.001050307,-0.003191984,-0.004840876,-0.00587107,-0.006283553,-0.006196596,-0.005817533,-0.005401094,-0.005201105,-0.005423014,-0.006184432,-0.007489772,-0.009223187,-0.011161614,-0.01300686,-0.014432762,-0.015140754,-0.014915253,-0.01366952,-0.011473461,-0.00855715,-0.005287602,-0.002120757,0.000464931,0.002043378,0.002312408,0.00115018,-0.001353112,-0.004894176,-0.008987358,-0.013023467,-0.016348666,-0.01835234,-0.018551416,-0.016658972,-0.012627104,-0.006657628,0.00082116,0.009208394,0.017807194,0.025912244,0.032894948,0.038273163,0.041755315,0.043253412,0.042865239,0.0408317,0.03747958,0.033162056,0.028208564,0.022892428,0.017419742,0.011937681,0.006555956,0.001372604,-0.003504759,-0.00794893,-0.011817258,-0.014968653,-0.017288522,-0.018714656,-0.01925687,-0.019004766,-0.018120855,-0.016819545,-0.015335591,-0.013887818,-0.012644979,-0.011700445,-0.011061071,-0.010653287,-0.010346501,-0.009990607,-0.009461266,-0.008704137,-0.007768085,-0.006818009,-0.006120619,-0.006001269,-0.006776058,-0.008670006,-0.011737594,-0.015804968,-0.020452379,-0.025050246,-0.028853076,-0.031143353,-0.031404791,-0.029493519,-0.025769628,-0.021152072,-0.017068333,-0.015285911,-0.017633848,-0.025645604,-0.040175608,-0.061056262,-0.08686634,-0.114873334,-0.141190973,-0.161161226,-0.169931882,-0.163162624,-0.137761364,-0.092535064,-0.028640073,0.050262095,0.138198294,0.227429235,0.309292808,0.37523953,0.417917468,0.432148884,0.415651234,0.369390059,0.29750552,0.206818754,0.105988256,0.004439159,-0.088779102,-0.166043974,-0.221975774,-0.25391531,-0.262015514,-0.24895973,-0.219374164,-0.179042697,-0.134052958,-0.090001472,-0.051364518,-0.021105507,-0.000546195,0.010514134,0.01348333,0.010540272,0.004162106,-0.003306989,-0.009985094,-0.01464495,-0.016762182,-0.016437172,-0.014226846,-0.010932093,-0.007386524,-0.004284181,-0.002070156,-0.000902309,-0.000677574,-0.001105454,-0.001805521,-0.002405532,-0.002620983,-0.002304091,-0.00145819,-0.000220749,0.001176657,0.002460575,0.003369128,0.003697573,0.003329739,0.002252394,0.000552615,-0.001599282,-0.00397709,-0.006331223,-0.008421282,-0.010044148,-0.011054373,-0.011375282,-0.011000942,-0.00999062,-0.008458244,-0.006559417,-0.004477886,-0.002412205,-0.000562254,0.000885391,0.001773968,0.001994625,0.001504148,0.000338875,-0.00137949,-0.00345001,-0.005612602,-0.007581181,-0.009085653,-0.009915748,-0.009958284,-0.009219905,-0.007829811,-0.006020839,-0.004091774,-0.002357661,-0.001097446,-0.000508683,-0.000677454,-0.001568347,-0.003035233,-0.004849632,-0.006740402,-0.008436971,-0.009708449,-0.01039243,-0.010409784,-0.00976459,-0.008531016,-0.006831093,-0.004808525,-0.002603938,-0.000336154,0.001907536,0.004071303,0.00612248,0.008038553,0.009794088,0.011352252,0.012664232,0.013677644,0.014352194,0.014678412,0.014693701,0.014489998,0.014208912,0.014023253,0.014107402,0.014602279,0.01558266,0.017034673,0.018849416,0.020835058,0.022745611,0.024320686,0.025328161,0.025601224,0.025062841,0.023733739,0.021723642,0.019208815,0.01640112,0.013514656,0.01073546,0.008198443,0.00597396,0.004064882,0.002413801,0.00091907,-0.000542345,-0.002088017,-0.003802822,-0.005715641,-0.007784526,-0.009894248,-0.011868534,-0.013496729,-0.014571571,-0.014931873,-0.014502043,-0.013319962,-0.011546311,-0.009451537,-0.007380939,-0.005702715,-0.004747481,-0.004749816,-0.005802478,-0.007831943,-0.01060041,-0.013734886,-0.016779457,-0.019262955,-0.020771675,-0.021015848,-0.019879332,-0.017444318,-0.013986408,-0.009939773,-0.005836644,-0.002229574,0.000392039,0.001678182,0.001474856,-0.000148604,-0.002906676,-0.006338819,-0.009878432,-0.012938593,-0.015000661,-0.015691428,-0.01483674,-0.012483795,-0.008889882,-0.004480975,0.000211831,0.004627162,0.008247975,0.010665669,0.011626177,0.011053907,0.009052738,0.00588609,0.001940008,-0.002325599,-0.006431835,-0.009935949,-0.01248095,-0.01383438,-0.01391182,-0.012782134,-0.010653539,-0.007842047,-0.004726413,-0.001695832,0.000902099,0.002805609,0.003868891,0.004074202,0.003524932,0.00242168,0.001025858,-0.000383005,-0.001549595,-0.002278615,-0.002459284,-0.00207567,-0.001202196,1.42E-05,0.001381887,0.002697615,0.00377931,0.004493275,0.004771352,0.00461546,0.004089253,0.003299131,0.002368928,0.0014138,0.000518865,-0.000273151,-0.00096317,-0.001586489,-0.002195905,-0.002841712,-0.003553416,-0.004327226,-0.005121655,-0.00586161,-0.0064495,-0.00678073,-0.006760622,-0.006320062,-0.005427957,-0.004099287,-0.002398153,-0.000435474,0.001638816,0.003648973,0.005411416,0.006755948,0.007547708,0.007706443,0.007219453,0.006145127,0.00460547,0.002768241,0.000821572,-0.001054159,-0.002711691,-0.004054495
-0.004099287,-0.002398153,-0.000435474,0.001638816,0.003648973,0.005411416,0.006755948,0.007547708,0.007706443,0.007219453,0.006145127,0.00460547,0.002768241,0.000821572,-0.001054159,-0.002711691,-0.004054495,-0.005043483,-0.005692253,-0.006053003,-0.006197297,-0.006196738,-0.006108069,-0.005965589,-0.005781487,-0.005552499,-0.005269769,-0.004928318,-0.004533133,-0.004100252,-0.003652945,-0.003214602,-0.002800838,-0.002413491,-0.002038556,-0.001648979,-0.001211953,-0.000699161,-9.77E-05,0.000581147,0.001296686,0.001980124,0.002541457,0.002882169,0.002911655,0.002564749,0.001817126,0.000695388,-0.000720761,-0.002305535,-0.003902898,-0.005348908,-0.006496702,-0.007239382,-0.007526179,-0.007368548,-0.006834957,-0.006035611,-0.005100637,-0.004156643,-0.003306741,-0.002618055,-0.002118695,-0.001803725,-0.001647506,-0.001618455,-0.001692037,-0.001858724,-0.002125293,-0.002509808,-0.003032257,-0.003703857,-0.00451816,-0.005446423,-0.006438588,-0.007429774,-0.00835105,-0.009142337,-0.00976491,-0.010210963,-0.010508043,-0.010716807,-0.010921411,-0.011212975,-0.01166783,-0.012323598,-0.013157269,-0.014070019,-0.014883262,-0.015349167,-0.015176602,-0.014070529,-0.011779925,-0.008146824,-0.003147946,0.003079221,0.010231906,0.017861758,0.025417333,0.032304083,0.03795351,0.041891596,0.04379664,0.043538227,0.041191843,0.03702716,0.031471723,0.025055215,0.018342217,0.011863013,0.006052359,0.001204946,-0.002546272,-0.005226439,-0.006991662,-0.008084282,-0.008779464,-0.009333304,-0.009941829,-0.010717405,-0.011684906,-0.012795379,-0.013951197,-0.015034637,-0.015932116,-0.01654879,-0.016812095,-0.016666991,-0.016068738,-0.014980039,-0.013377897,-0.011271867,-0.008730577,-0.005908908,-0.003065485,-0.000560143,0.001175731,0.001697316,0.000626961,-0.002255749,-0.006932619,-0.013094175,-0.020133443,-0.027197527,-0.03329865,-0.03747466,-0.038977455,-0.037458337,-0.033114104,-0.026758346,-0.019789756,-0.014043151,-0.011527959,-0.014080526,-0.022977202,-0.038570693,-0.06001885,-0.085170026,-0.1106516,-0.132179419,-0.14506971,-0.14489719,-0.128210556,-0.093195945,-0.040175506,0.028155868,0.106818403,0.188974896,0.266659127,0.331716075,0.376826466,0.396469185,0.387679207,0.35048597,0.287963276,0.205879417,0.111995956,0.015115559,-0.075984756,-0.15358435,-0.211872367,-0.247513264,-0.259860656,-0.250810156,-0.22433525,-0.185793824,-0.141120431,-0.096027238,-0.055324915,-0.022446799,0.00077877,0.014104792,0.018625662,0.01638452,0.009906886,0.001740698,-0.005928912,-0.011542827,-0.014287744,-0.014076851,-0.011417068,-0.007202691,-0.002480955,0.001767454,0.004798955,0.00620785,0.005951061,0.004304,0.001765182,-0.001066655,-0.003617657,-0.00544369,-0.006298592,-0.006157662,-0.005197001,-0.003737033,-0.002164248,-0.000847871,-6.77E-05,3.43E-05,-0.000529162,-0.001604777,-0.002939776,-0.004238586,-0.005223361,-0.005686271,-0.005524507,-0.004753248,-0.003496637,-0.001960955,-0.000396817,0.000941865,0.001835197,0.002125858,0.001736247,0.000673787,-0.000974406,-0.003055339,-0.005369985,-0.00769673,-0.009816129,-0.011534787,-0.012706182,-0.01324632,-0.013142291,-0.012452408,-0.011297441,-0.009843685,-0.008279891,-0.006791187,-0.005533849,-0.004614875,-0.004079671,-0.003909915,-0.004031977,-0.004334419,-0.004691463,-0.004988169,-0.00514256,-0.005120298,-0.004938639,-0.004658291,-0.004364114,-0.004138102,-0.004030192,-0.004033624,-0.004071497,-0.003999387,-0.003625816,-0.002748258,-0.001198368,0.001112979,0.004161349,0.007794355,0.011742777,0.01565739,0.019165863,0.021939059,0.023753304,0.024535269,0.024379307,0.023532618,0.022350305,0.021228719,0.020530015,0.020512629,0.021281041,0.022764173,0.024725993,0.026805614,0.028578827,0.029629413,0.029617517,0.028333683,0.025730452,0.021927868,0.017193832,0.011904217,0.0064903,0.001382154,-0.003043731,-0.006505896,-0.008844015,-0.010027825,-0.01014945,-0.009401806,-0.008047197,-0.006381019,-0.004695583,-0.003248469,-0.002238705,-0.00179264,-0.001959814,-0.002717785,-0.003983911,-0.005631572,-0.007508341,-0.009453973,-0.011316585,-0.012965979,-0.014303434,-0.015267589,-0.015836236,-0.016024062,-0.015876744,-0.015462218,-0.014860414,-0.014153,-0.013414669,-0.012707016,-0.012075358,-0.011548007,-0.011137001,-0.010839131,-0.010636624,-0.010497617,-0.010377357,-0.010221527,-0.00997272,-0.009580176,-0.009011399,-0.008263019,-0.007367566,-0.006393191,-0.005434805,-0.004597259,-0.003973493,-0.003622304,-0.003551041,-0.003707813,-0.003985899,-0.00424041,-0.004314539,-0.004070579,-0.003419799,-0.002345356,-0.000913758,0.000727574,0.002366611,0.003754572,0.00464117,0.004812077,0.004123167,0.002526672,8.56E-05,-0.003026072,-0.006536772,-0.010104609,-0.013353887,-0.015917656,-0.017480894,-0.017818978,-0.016826399,-0.014531647,-0.011095874,-0.006795117,-0.00198824,0.002925011,0.007549921,0.011540104,0.014632249,0.016667908,0.017600329,0.017486811,0.016469302,0.014747392,0.012548385,0.010098738,0.007600174,0.00521249,0.003043818,0.001148167,-0.000470625,-0.001849739,-0.003054459,-0.004163064,-0.005251225,-0.006377658,-0.007572719,-0.008831357,-0.010111326,-0.011336894,-0.012407509,-0.013210235,-0.01363431,-0.013586,-0.01300199,-0.011859804,-0.010184088,-0.008047913,-0.00556868,-0.002898656,-0.000210801,0.002318768,0.004529546,0.006294018,0.007530843,0.008211501,0.008359119,0.008039659,0.007347296,0.006387078,0.005258547,0.004043601,0.002800624,0.001565096,0.000355089
0.003043818,0.001148167,-0.000470625,-0.001849739,-0.003054459,-0.004163064,-0.005251225,-0.006377658,-0.007572719,-0.008831357,-0.010111326,-0.011336894,-0.012407509,-0.013210235,-0.01363431,-0.013586,-0.01300199,-0.011859804,-0.010184088,-0.008047913,-0.00556868,-0.002898656,-0.000210801,0.002318768,0.004529546,0.006294018,0.007530843,0.008211501,0.008359119,0.008039659,0.007347296,0.006387078,0.005258547,0.004043601,0.002800624,0.001565096,0.000355089,-0.000821175,-0.001958741,-0.00305254,-0.004097832,-0.005093376,-0.006044873,-0.006965983,-0.00787493,-0.008786378,-0.009700143,-0.010589889,-0.011395534,-0.012022631,-0.012350426,-0.012248195,-0.01159737,-0.01031537,-0.008376514,-0.005825766,-0.002782455,0.000567004,0.003986336,0.007213786,0.009989732,0.012083283,0.013314109,0.013566919,0.012797659,0.011032161,0.008359432,0.004922468,0.000909388,-0.003453403,-0.007905976,-0.012159454,-0.015903772,-0.018822513,-0.020617758,-0.021045531,-0.019958935,-0.017352326,-0.013396891,-0.008456833,-0.003076761,0.002064954,0.006235745,0.008752789,0.009095997,0.007010233,0.002576241,-0.003766637,-0.011255222,-0.018893662,-0.025588984,-0.030309796,-0.032241507,-0.030911124,-0.026259704,-0.018649882,-0.008807752,0.002289781,0.01356149,0.023976084,0.03268793,0.039132627,0.043069306,0.044567087,0.043943328,0.041669574,0.03826563,0.034202697,0.029832888,0.025355897,0.020825298,0.016188784,0.011349991,0.006235759,0.000852318,-0.004682984,-0.01014189,-0.015217447,-0.019580871,-0.022949946,-0.02515295,-0.026172762,-0.026159888,-0.025409897,-0.024308559,-0.023255311,-0.022580787,-0.022476005,-0.022948937,-0.023818983,-0.024752398,-0.025333339,-0.025157738,-0.023931825,-0.021555128,-0.018169454,-0.014160714,-0.010108678,-0.006689738,-0.004547756,-0.004156335,-0.00570049,-0.009005437,-0.013534175,-0.018464201,-0.022838508,-0.025769435,-0.026659373,-0.025393072,-0.022455046,-0.018934011,-0.016393779,-0.016614512,-0.02123541,-0.03135466,-0.047159385,-0.067663046,-0.090617813,-0.112645192,-0.129592853,-0.13708495,-0.131194497,-0.109137123,-0.069871944,-0.014500993,0.053616142,0.1290746,0.204954756,0.273610467,0.327610568,0.36070076,0.368645414,0.349823533,0.305488132,0.239647826,0.15858569,0.070084145,-0.017532675,-0.096402664,-0.160035612,-0.204007077,-0.226350056,-0.22760589,-0.210547269,-0.179633117,-0.140290343,-0.098136088,-0.058254115,-0.02462179,0.000246616,0.015412687,0.021394038,0.0198568,0.013188443,0.00402918,-0.005162984,-0.012452976,-0.016636802,-0.017304312,-0.014768027,-0.009888898,-0.003841764,0.002133139,0.006950655,0.009841753,0.010438047,0.008777845,0.005245169,0.000462699,-0.004835956,-0.009929978,-0.014211481,-0.017250271,-0.018820054,-0.018890431,-0.017594084,-0.015180624,-0.01196778,-0.008297824,-0.004503461,-0.00088403,0.002309545,0.004883616,0.006706828,0.007712686,0.00789986,0.007329608,0.006119428,0.004432429,0.002462604,0.00041701,-0.001503651,-0.003124342,-0.004313281,-0.004996371,-0.005167129,-0.004890646,-0.004300085,-0.003584343,-0.00296634,-0.002672809,-0.00289855,-0.003770201,-0.005316093,-0.007449035,-0.009967462,-0.012577361,-0.014933295,-0.016692552,-0.017573089,-0.017404342,-0.016160767,-0.013970952,-0.011099828,-0.007906785,-0.004787207,-0.002108141,-0.000149701,0.000937501,0.001152003,0.000635714,-0.000355098,-0.001495971,-0.002449003,-0.002916845,-0.002687475,-0.001663466,0.00012767,0.00254242,0.005347095,0.008255994,0.010975981,0.013250938,0.014899779,0.015842698,0.016111953,0.015845712,0.015265969,0.014643909,0.014258076,0.014351719,0.01509573,0.016562502,0.018714107,0.02140584,0.024403834,0.027413558,0.030114877,0.032199037,0.033403286,0.033539671,0.032515576,0.030344471,0.027146153,0.023136427,0.018606806,0.013895648,0.009353073,0.005303095,0.002007263,-0.000365435,-0.001758003,-0.002230966,-0.001952645,-0.001175196,-0.000199666,0.000664903,0.001142382,0.001024703,0.000196524,-0.00135352,-0.003535768,-0.006175474,-0.009038751,-0.01186448,-0.014397649,-0.016419772,-0.017772761,-0.018373731,-0.018219532,-0.01738126,-0.015990224,-0.014217954,-0.01225339,-0.010280526,-0.008459342,-0.006911993,-0.005715104,-0.004897926,-0.004445267,-0.004303721,-0.00438983,-0.00459924,-0.004816518,-0.004925703,-0.004821739,-0.004422536,-0.003680735,-0.002593515,-0.001208293,0.000377725,0.002025471,0.003569456,0.004839184,0.005683571,0.005994431,0.005724917,0.00489944,0.003612982,0.002019484,0.000310883,-0.001310116,-0.002659428,-0.003598792,-0.004056833,-0.004040929,-0.003638123,-0.003004668,-0.002345196,-0.001883772,-0.001830279,-0.002346484,-0.003516699,-0.005327906,-0.007663385,-0.010312178,-0.012994274,-0.015398533,-0.017227763,-0.018243507,-0.018302692,-0.017379432,-0.015567895,-0.013065684,-0.010140895,-0.007089038,-0.004187769,-0.001657442,0.000365925,0.001841323,0.002816286,0.003405568,0.003759659,0.004029324,0.004332631,0.004730323,0.005213762,0.00570759,0.006086699,0.00620461,0.005928105,0.005171472,0.003923269,0.002259447,0.000338946,-0.001618716,-0.003370529,-0.004695,-0.005436149,-0.005537318,-0.005057335,-0.004165081,-0.00311284,-0.002193088,-0.001686562,-0.001810945,-0.002679151,-0.004274151,-0.006444283,-0.008919615,-0.011346877,-0.013338071,-0.014526317,-0.014621672,-0.013459528,-0.011034664,-0.007515201,-0.00323268,0.001352692,0.005708968,0.009305048,0.011688891,0.012559053,0.011817014,0.009589917,0.006217851,0.002205938
0.006086699,0.00620461,0.005928105,0.005171472,0.003923269,0.002259447,0.000338946,-0.001618716,-0.003370529,-0.004695,-0.005436149,-0.005537318,-0.005057335,-0.004165081,-0.00311284,-0.002193088,-0.001686562,-0.001810945,-0.002679151,-0.004274151,-0.006444283,-0.008919615,-0.011346877,-0.013338071,-0.014526317,-0.014621672,-0.013459528,-0.011034664,-0.007515201,-0.00323268,0.001352692,0.005708968,0.009305048,0.011688891,0.012559053,0.011817014,0.009589917,0.006217851,0.002205938,-0.001851951,-0.005365427,-0.007839994,-0.00895357,-0.008603928,-0.006919295,-0.004231202,-0.001015454,0.002187564,0.004859019,0.006579833,0.007088909,0.006313607,0.00436977,0.001533611,-0.001808152,-0.005220927,-0.008287595,-0.010667045,-0.012138056,-0.01262327,-0.012191013,-0.011035881,-0.009441836,-0.007733888,-0.006225859,-0.005172072,-0.004730084,-0.004939692,-0.005720833,-0.006890017,-0.008192039,-0.009341544,-0.010067816,-0.010156188,-0.00948055,-0.008023263,-0.005880893,-0.003256099,-0.000437353,0.002231013,0.004385674,0.0056852,0.005851873,0.004710891,0.0022228,-0.001495389,-0.006164829,-0.011358557,-0.016535492,-0.021092976,-0.024432805,-0.026032837,-0.025514489,-0.022696301,-0.017625322,-0.010581186,-0.002051728,0.007316867,0.016788783,0.025617129,0.033122251,0.038760137,0.042172931,0.043216208,0.041960836,0.038670599,0.033759785,0.027737354,0.021145697,0.014502192,0.00825075,0.002728369,-0.001851026,-0.005396167,-0.007924621,-0.009540294,-0.010407379,-0.010725052,-0.010705675,-0.010557316,-0.010469833,-0.010602851,-0.011074089,-0.011947472,-0.013221957,-0.01482358,-0.016604148,-0.018350019,-0.019803227,-0.020694963,-0.020788613,-0.019926618,-0.018073224,-0.015344179,-0.012015126,-0.008502927,-0.005318262,-0.00299303,-0.001991574,-0.002619468,-0.00494665,-0.00876201,-0.01357371,-0.018663417,-0.023193807,-0.026358357,-0.027552247,-0.026535146,-0.023552693,-0.019385133,-0.01529956,-0.012896137,-0.013856866,-0.019625269,-0.031063104,-0.048142404,-0.069734457,-0.093549962,-0.116266363,-0.133851103,-0.142057038,-0.137033716,-0.115971381,-0.077678889,-0.022996129,0.045042258,0.121343368,0.199200999,0.271009219,0.329159396,0.367001099,0.379730169,0.36507132,0.323648218,0.25897775,0.177080466,0.085757167,-0.006367336,-0.09089673,-0.160661532,-0.210522995,-0.237874823,-0.242783989,-0.227768953,-0.197268624,-0.156899223,-0.112621917,-0.069948309,-0.033294486,-0.005561524,0.012021754,0.019801597,0.019393274,0.01323791,0.004105907,-0.005372021,-0.013079985,-0.01765516,-0.018572715,-0.016086613,-0.011056238,-0.004702261,0.001659826,0.006863049,0.010073296,0.010892783,0.009376346,0.005969159,0.001386152,-0.003539433,-0.008009076,-0.011387563,-0.013288296,-0.01360616,-0.012498803,-0.010325974,-0.007562509,-0.004703163,-0.002176544,-0.000281699,0.000844652,0.001228362,0.001029336,0.00049233,-0.000112341,-0.000546961,-0.00065336,-0.00038108,0.000207276,0.00095361,0.001640928,0.002041772,0.001969092,0.001319527,0.000100313,-0.001565967,-0.003460311,-0.005306597,-0.006823726,-0.007780243,-0.008040472,-0.007592913,-0.006555307,-0.005155633,-0.003693077,-0.002486781,-0.00182213,-0.001904128,-0.00282542,-0.004553244,-0.00693604,-0.009727171,-0.012620939,-0.015294855,-0.017451938,-0.018857437,-0.019365501,-0.018932802,-0.017617847,-0.015566557,-0.012986645,-0.010114994,-0.007183443,-0.004388695,-0.001871267,0.000293453,0.002091569,0.003556728,0.004750326,0.005741322,0.00659073,0.007344017,0.008032053,0.008678546,0.009309953,0.0099632,0.010687425,0.011538041,0.012564087,0.013792275,0.015212545,0.016769967,0.018366295,0.01987202,0.021146947,0.022064961,0.022537482,0.02253027,0.022069756,0.021237453,0.020153616,0.018953556,0.017761421,0.016666636,0.015707496,0.014864973,0.014067837,0.013208133,0.01216419,0.010826957,0.009124776,0.007041821,0.004626452,0.001987466,-0.000721498,-0.003326769,-0.005664018,-0.007606399,-0.009085658,-0.010101762,-0.010718992,-0.01104939,-0.011227293,-0.011380634,-0.011605308,-0.011947958,-0.012400371,-0.012905793,-0.013374703,-0.013705652,-0.013806117,-0.013609021,-0.013082307,-0.012231155,-0.011094309,-0.009737102,-0.008243785,-0.006710876,-0.005241844,-0.003942163,-0.002913119,-0.002243063,-0.001995946,-0.002198605,-0.002829748,-0.003814297,-0.005026371,-0.006302537,-0.00746456,-0.008348218,-0.008832698,-0.008864198,-0.008468067,-0.007745976,-0.006857763,-0.005991028,-0.005324363,-0.004991636,-0.005054689,-0.005490079,-0.006192591,-0.00699481,-0.007698797,-0.008113536,-0.008090804,-0.007552521,-0.006504465,-0.005033953,-0.003292268,-0.001465607,0.000259494,0.001729214,0.002847351,0.00358717,0.003988086,0.004138345,0.004147894,0.004117794,0.004113197,0.00414607,0.004171507,0.00409838,0.003811784,0.003202152,0.002194542,0.000771674,-0.001014185,-0.003042942,-0.005141646,-0.007109703,-0.008749563,-0.009897249,-0.010447443,-0.010369013,-0.009708641,-0.008582261,-0.007155905,-0.005619153,-0.004155466,-0.002914169,-0.001988652,-0.001404508,-0.001119788,-0.001037506,-0.001028296,-0.000958985,-0.000721448,-0.000255731,0.000437632,0.001298943,0.002224133,0.003089609,0.003781267,0.00422058,0.004381358,0.004293025,0.004029741,0.003688272,0.003360439,0.003107297,0.002941671,0.00282348,0.002668983,0.002371675,0.001829847,0.000974427,-0.000209077,-0.001669204,-0.003290024,-0.004905209,-0.006322165,-0.007352176,-0.007841781,-0.007700585,-0.006921253,-0.005588354,-0.00387396
-0.005619153,-0.004155466,-0.002914169,-0.001988652,-0.001404508,-0.001119788,-0.001037506,-0.001028296,-0.000958985,-0.000721448,-0.000255731,0.000437632,0.001298943,0.002224133,0.003089609,0.003781267,0.00422058,0.004381358,0.004293025,0.004029741,0.003688272,0.003360439,0.003107297,0.002941671,0.00282348,0.002668983,0.002371675,0.001829847,0.000974427,-0.000209077,-0.001669204,-0.003290024,-0.004905209,-0.006322165,-0.007352176,-0.007841781,-0.007700585,-0.006921253,-0.005588354,-0.00387396,-0.002019471,-0.000304961,0.000990631,0.001633204,0.001474349,0.000482109,-0.001244883,-0.00348415,-0.005917858,-0.008179798,-0.009913649,-0.010832481,-0.010768473,-0.009703037,-0.00777099,-0.005237306,-0.002450434,0.000219055,0.002442693,0.003988759,0.004756836,0.004785865,0.004234682,0.003339557,0.002357857,0.001509632,0.00092924,0.000637048,0.000537155,0.000441871,0.000118137,-0.000653518,-0.002019918,-0.004009112,-0.006508199,-0.009271791,-0.011961628,-0.014211209,-0.015703273,-0.016244166,-0.015818328,-0.01460901,-0.012977411,-0.011400733,-0.010378457,-0.010323665,-0.011460643,-0.013750274,-0.016860599,-0.020192,-0.022956395,-0.024299394,-0.023445836,-0.019843913,-0.013282399,-0.003959314,0.007511957,0.020162859,0.032788924,0.044110848,0.052952819,0.058410014,0.059978335,0.057624944,0.051787559,0.043302072,0.03327015,0.02288879,0.013270512,0.005284473,-0.00055502,-0.004134943,-0.005719335,-0.005861916,-0.005274532,-0.004678038,-0.004664431,-0.005595552,-0.007555145,-0.01035962,-0.013620796,-0.016843886,-0.019538002,-0.021315597,-0.021961376,-0.021459218,-0.019975498,-0.017806751,-0.015306767,-0.01281154,-0.010579554,-0.008759993,-0.007393954,-0.006445295,-0.005850364,-0.005571045,-0.005634614,-0.006146962,-0.007272382,-0.00918194,-0.01198161,-0.015638664,-0.019928409,-0.024421885,-0.02852829,-0.031594477,-0.033049892,-0.032571617,-0.030233987,-0.026603412,-0.022743507,-0.020108622,-0.020323971,-0.024874452,-0.034747379,-0.050091916,-0.069965468,-0.092231914,-0.113657735,-0.130221857,-0.13761792,-0.131890001,-0.110111689,-0.071000258,-0.015357078,0.053755939,0.131158135,0.210016337,0.282589339,0.341156766,0.379003995,0.391320138,0.375874308,0.333365718,0.267390854,0.184028385,0.091099936,-0.002786834,-0.089275397,-0.161231236,-0.213514014,-0.243452888,-0.250975051,-0.238391308,-0.209892629,-0.170850197,-0.127032843,-0.083857913,-0.04577553,-0.015856511,0.004383308,0.014927702,0.017011887,0.012742709,0.004659108,-0.004696652,-0.01313815,-0.019084273,-0.021680624,-0.020795845,-0.016913376,-0.010951121,-0.004046812,0.00265414,0.008177749,0.011846694,0.013342075,0.012702845,0.010272902,0.006611628,0.002386199,-0.001736608,-0.005184326,-0.007548063,-0.008621608,-0.00840944,-0.007106398,-0.005054478,-0.002683924,-0.000446657,0.001249649,0.002098882,0.001938174,0.000768592,-0.001248099,-0.003816424,-0.00655433,-0.009053581,-0.010944125,-0.011952131,-0.011942187,-0.010936729,-0.009109706,-0.006756059,-0.004242816,-0.001950657,-0.000216037,0.000716758,0.000726662,-0.000173534,-0.001846756,-0.004058094,-0.006512581,-0.008897867,-0.010925517,-0.012365713,-0.013071599,-0.012991269,-0.012167009,-0.01072303,-0.008844179,-0.006749176,-0.004662363,-0.002787893,-0.001289562,-0.000278161,0.000193271,0.000127453,-0.000423756,-0.001368173,-0.002582424,-0.003920603,-0.005222916,-0.006325643,-0.007073798,-0.007336994,-0.007027347,-0.006116383,-0.004646565,-0.002732821,-0.000550807,0.001688643,0.003775848,0.005542965,0.006900329,0.007859524,0.008536354,0.009130939,0.009887397,0.011040561,0.012760793,0.015109069,0.018012802,0.021268668,0.024572898,0.027573456,0.029933672,0.031394245,0.031820747,0.031226676,0.029767135,0.02770422,0.025351051,0.023005802,0.020889352,0.019099709,0.017593244,0.016197499,0.014653902,0.0126823,0.010054223,0.006659241,0.002549456,-0.002048935,-0.006761583,-0.011126177,-0.014676059,-0.017030887,-0.017975583,-0.017510496,-0.015861046,-0.013443328,-0.010791347,-0.00845986,-0.006922293,-0.006484531,-0.00723222,-0.009022117,-0.011518567,-0.014266515,-0.016784736,-0.018659029,-0.01961577,-0.019561267,-0.018580572,-0.016898694,-0.014815475,-0.012630676,-0.010577158,-0.008777117,-0.0072302,-0.005834419,-0.004433046,-0.002874855,-0.001072354,0.000956452,0.003073107,0.005034486,0.006536143,0.007273689,0.0070086,0.00562378,0.003156489,-0.00019877,-0.004118182,-0.008201445,-0.012038237,-0.015274372,-0.017664113,-0.01909858,-0.019605743,-0.019323883,-0.018456126,-0.017217402,-0.015786213,-0.014271745,-0.012702724,-0.011038969,-0.009201246,-0.007110919,-0.00472894,-0.002084301,0.000715116,0.003492022,0.006027408,0.008100122,0.009529328,0.010210259,0.010135201,0.009394983,0.00816055,0.006648556,0.0050784,0.003629986,0.002411361,0.001443272,0.000664054,-4.62E-05,-0.00082716,-0.001795029,-0.003002886,-0.004415676,-0.005905406,-0.007269179,-0.008267174,-0.008673161,-0.008326841,-0.007176429,-0.005301512,-0.002910185,-0.00030993,0.002142568,0.004102837,0.005298916,0.005578454,0.004933409,0.003498007,0.001521193,-0.00068009,-0.002777035,-0.004483532,-0.005599275,-0.006034481,-0.005813279,-0.005057021,-0.003952223,-0.002710205,-0.001526347,-0.000546326,0.000155027,0.000579138,0.000793216,0.000906591,0.001038994,0.001287426,0.001698666,0.002253497,0.002866562,0.00340256,0.003705978,0.00363833,0.003114731,0.002131245,0.000775993,-0.00077972,-0.002309547,-0.003574341
0.004933409,0.003498007,0.001521193,-0.00068009,-0.002777035,-0.004483532,-0.005599275,-0.006034481,-0.005813279,-0.005057021,-0.003952223,-0.002710205,-0.001526347,-0.000546326,0.000155027,0.000579138,0.000793216,0.000906591,0.001038994,0.001287426,0.001698666,0.002253497,0.002866562,0.00340256,0.003705978,0.00363833,0.003114731,0.002131245,0.000775993,-0.00077972,-0.002309547,-0.003574341,-0.004369803,-0.004569339,-0.004152642,-0.003213571,-0.001945356,-0.000606015,0.000528951,0.001217155,0.001293397,0.000699212,-0.000506907,-0.002159525,-0.004013807,-0.005785167,-0.007194248,-0.008010295,-0.008086914,-0.007385655,-0.005984604,-0.004070899,-0.001917794,0.000151402,0.001808482,0.002768995,0.002837639,0.001943233,0.000156911,-0.002310823,-0.005135291,-0.007922363,-0.010266258,-0.011811122,-0.012306,-0.011643668,-0.009876616,-0.007207626,-0.003957099,-0.000513395,0.002724672,0.005403106,0.007256665,0.008134991,0.0080081,0.00695229,0.005120963,0.002707256,-9.36E-05,-0.003115057,-0.006236674,-0.00938674,-0.012529033,-0.015638113,-0.018668971,-0.021528647,-0.024057393,-0.026025458,-0.02714863,-0.027121852,-0.025666227,-0.022581404,-0.017793483,-0.011388751,-0.003625761,0.005077852,0.014182755,0.023083973,0.031176842,0.037922644,0.042904334,0.045865058,0.046725511,0.045579753,0.042672181,0.038360436,0.033070044,0.02724668,0.021311359,0.015622982,0.010451594,0.005964494,0.002225928,-0.000790527,-0.003179562,-0.005075922,-0.006625556,-0.00796132,-0.009187195,-0.0103728,-0.011557281,-0.012759098,-0.013986754,-0.015245444,-0.016536224,-0.017847093,-0.01913868,-0.020329985,-0.021290947,-0.021848044,-0.021806489,-0.02098846,-0.019282057,-0.01669139,-0.013375629,-0.009664615,-0.00604141,-0.003087583,-0.001394496,-0.001452109,-0.003534179,-0.007603564,-0.013262033,-0.019764622,-0.02610897,-0.031196351,-0.034045247,-0.03402339,-0.031053562,-0.025745182,-0.019409855,-0.013934953,-0.01151335,-0.014255775,-0.02374,-0.040572229,-0.064045668,-0.091975735,-0.120769952,-0.145755548,-0.161744241,-0.163769057,-0.147890482,-0.111946431,-0.05611781,0.01679909,0.101482407,0.190551683,0.275367086,0.347060604,0.397657623,0.421127622,0.414208452,0.376879369,0.312409013,0.226967688,0.128858472,0.027478402,-0.067839962,-0.148940953,-0.20975736,-0.24690095,-0.259864349,-0.250828031,-0.22412594,-0.185471636,-0.141076215,-0.096795703,-0.057429375,-0.026255821,-0.004847784,0.006841479,0.010169689,0.007353725,0.000966185,-0.00653207,-0.013154211,-0.017603158,-0.019330349,-0.01845557,-0.015586932,-0.011591089,-0.007364214,-0.003645548,-0.000900483,0.000717336,0.00133188,0.001258216,0.000890259,0.00059046,0.000604592,0.001016496,0.001747456,0.002595006,0.003298237,0.003612306,0.003374452,0.002547104,0.001229647,-0.000362171,-0.001943198,-0.003220775,-0.003957628,-0.004022266,-0.003416829,-0.002277496,-0.00084852,0.000563904,0.001648175,0.002143248,0.001883976,0.000828559,-0.000935483,-0.003206506,-0.005701485,-0.008100291,-0.010094312,-0.011432083,-0.011955437,-0.011621255,-0.010505973,-0.00879247,-0.006741437,-0.00465167,-0.002815442,-0.001475922,-0.000793287,-0.000824668,-0.001520613,-0.002737866,-0.004265461,-0.005859106,-0.007277858,-0.008317378,-0.008835338,-0.008766401,-0.008126105,-0.007004558,-0.005551751,-0.003956715,-0.002422728,-0.001140739,-0.000263299,0.000118369,-8.86E-06,-0.000572477,-0.001418697,-0.002329685,-0.003052737,-0.003337725,-0.002976977,-0.001840488,0.000100336,0.002765318,0.005976266,0.009483889,0.013005607,0.016266936,0.019038765,0.021164236,0.022571633,0.023272876,0.023350124,0.022934862,0.022184419,0.021260121,0.020309807,0.019455599,0.018786419,0.018353954,0.018170771,0.018209897,0.018405973,0.018658819,0.01884047,0.018806495,0.018411597,0.0175284,0.01606723,0.013993826,0.011341619,0.008215527,0.004785304,0.001268078,-0.002098315,-0.005087645,-0.007518251,-0.00928091,-0.01035632,-0.010818346,-0.010821634,-0.010575081,-0.010305479,-0.010217753,-0.010459147,-0.011094126,-0.012094808,-0.013348699,-0.014682033,-0.015893862,-0.016793884,-0.017236372,-0.017143619,-0.016514811,-0.015419607,-0.013979104,-0.012339477,-0.010644822,-0.009015242,-0.007534399,-0.006247902,-0.005171082,-0.004302425,-0.00363789,-0.003181615,-0.002949985,-0.002968163,-0.003260404,-0.003837167,-0.004682856,-0.005747767,-0.006946684,-0.008164907,-0.009270689,-0.010131699,-0.010632336,-0.010688788,-0.01025943,-0.009349309,-0.008008718,-0.006326945,-0.00442289,-0.002434377,-0.000507652,0.001212125,0.002589283,0.003505482,0.00386777,0.003617436,0.002739624,0.001272665,-0.000684966,-0.002972911,-0.005375371,-0.007637827,-0.009494298,-0.010702792,-0.011083867,-0.010555105,-0.009153604,-0.00703983,-0.004479364,-0.001803723,0.000643646,0.002566007,0.003764549,0.004171032,0.003854435,0.002999891,0.001864521,0.000720109,-0.000204463,-0.000768225,-0.000940947,-0.000799568,-0.00050019,-0.000233142,-0.000172147,-0.000429421,-0.001026673,-0.001887929,-0.002855105,-0.003722326,-0.004281278,-0.004367933,-0.003901087,-0.002904998,-0.001511639,5.82E-05,0.001531488,0.002631736,0.00313005,0.002890672,0.001901739,0.000285404,-0.001715437,-0.003772509,-0.005524261,-0.006636169,-0.006858804,-0.00607331,-0.004315853,-0.001776275,0.00122921,0.004306624,0.007045632,0.009082967,0.010156977,0.01014441,0.009074123,0.007116809,0.004554,0.001732789,-0.000985704,-0.003276101,-0.004890128,-0.005685049
0.002890672,0.001901739,0.000285404,-0.001715437,-0.003772509,-0.005524261,-0.006636169,-0.006858804,-0.00607331,-0.004315853,-0.001776275,0.00122921,0.004306624,0.007045632,0.009082967,0.010156977,0.01014441,0.009074123,0.007116809,0.004554,0.001732789,-0.000985704,-0.003276101,-0.004890128,-0.005685049,-0.005636997,-0.004838987,-0.003484983,-0.001842375,-0.000216052,0.001092084,0.001823647,0.001799358,0.000944776,-0.000697982,-0.002974907,-0.005641015,-0.008394572,-0.010919228,-0.012927136,-0.014196102,-0.014595127,-0.014095144,-0.01276465,-0.010752616,-0.008262892,-0.005525134,-0.002766951,-0.000190901,0.002041579,0.003818659,0.005079618,0.0058107,0.006037051,0.005812464,0.005208521,0.004304436,0.003178572,0.001902296,0.000536475,-0.000869417,-0.002275937,-0.003650685,-0.00496453,-0.006187973,-0.007288538,-0.008229915,-0.00897328,-0.00948087,-0.009721456,-0.009676969,-0.009349201,-0.008765285,-0.007980639,-0.007078269,-0.006163785,-0.005356124,-0.004774748,-0.004524803,-0.004682242,-0.005281126,-0.006305136,-0.007684742,-0.009300614,-0.010992862,-0.012574753,-0.013848913,-0.014623823,-0.014728694,-0.014025534,-0.012418142,-0.009858591,-0.006352191,-0.001961792,0.003188465,0.0089109,0.014955575,0.021017581,0.026752518,0.031800969,0.0358207,0.03852298,0.039707571,0.039290077,0.037316028,0.033958086,0.029495874,0.024281208,0.018694419,0.013099043,0.007802307,0.003027451,-0.001098604,-0.004541738,-0.007343649,-0.009595972,-0.01141122,-0.012896225,-0.014132679,-0.015167502,-0.016013559,-0.016658971,-0.017081601,-0.017264315,-0.017206721,-0.016930187,-0.016474867,-0.015889777,-0.015219124,-0.014489539,-0.013703018,-0.01283923,-0.011868286,-0.010771881,-0.009567458,-0.008327871,-0.007188582,-0.006336278,-0.005976823,-0.006286011,-0.007352415,-0.009126287,-0.011390434,-0.013767241,-0.015770286,-0.016899798,-0.016770226,-0.015247597,-0.01256666,-0.009395423,-0.00681899,-0.006225878,-0.009097109,-0.01671861,-0.029857266,-0.048456201,-0.071411744,-0.096490397,-0.120428182,-0.139228199,-0.148638822,-0.144760002,-0.124695045,-0.08714628,-0.032850058,0.035238167,0.112065297,0.190919689,0.264147782,0.324060133,0.363902789,0.378753004,0.366204293,0.32673435,0.263696053,0.182928851,0.092045601,-0.000501389,-0.086439807,-0.158637578,-0.211872868,-0.243316488,-0.252676624,-0.242008268,-0.215238469,-0.177496052,-0.134355427,-0.091106809,-0.052150577,-0.020585691,0.001973368,0.0153536,0.020589461,0.019556659,0.014544962,0.007841524,0.001385676,-0.003462543,-0.0060209,-0.006254815,-0.004642946,-0.001976854,0.000860884,0.003097801,0.004218655,0.004039067,0.002701891,0.000607142,-0.001702688,-0.003674224,-0.004863966,-0.005025448,-0.004148857,-0.002449583,-0.00031229,0.001795032,0.003418095,0.00420493,0.003969736,0.002721427,0.000653781,-0.001898578,-0.004528013,-0.006831415,-0.008482456,-0.009285488,-0.009202247,-0.008348206,-0.006961256,-0.005350455,-0.003835786,-0.002690804,-0.002098623,-0.002128339,-0.00273447,-0.003777369,-0.005058671,-0.006363524,-0.007500827,-0.008334068,-0.008797917,-0.00889912,-0.00870339,-0.008312566,-0.007837693,-0.007373909,-0.006982091,-0.00668052,-0.006447666,-0.006234906,-0.005986081,-0.00565928,-0.005245669,-0.004780456,-0.004342419,-0.004040637,-0.003989841,-0.004278698,-0.004937581,-0.005913542,-0.007059645,-0.008143572,-0.008876694,-0.008960316,-0.008141631,-0.006268897,-0.003334476,0.000504085,0.004931026,0.009508219,0.013735113,0.017123264,0.019273002,0.019939318,0.019075914,0.01685016,0.01362651,0.009920854,0.006332538,0.003463763,0.001837605,0.001825859,0.003596507,0.007088012,0.012014113,0.017898727,0.024136365,0.030069789,0.035073921,0.038634013,0.040406836,0.040256353,0.038259463,0.03468226,0.029931954,0.024493273,0.018860078,0.013472903,0.008671171,0.004665588,0.001532325,-0.000773067,-0.002386889,-0.003500126,-0.004319597,-0.005033329,-0.005784514,-0.006656518,-0.007669583,-0.00878823,-0.009937078,-0.011021851,-0.011951863,-0.01266012,-0.013117668,-0.013339713,-0.013382524,-0.013331819,-0.013285032,-0.013331138,-0.013532246,-0.013910733,-0.014444402,-0.015070236,-0.015695355,-0.016212252,-0.016514779,-0.01651176,-0.01613634,-0.01535084,-0.014148232,-0.012552029,-0.01061605,-0.008424452,-0.006091033,-0.003755779,-0.00157653,0.00028538,0.00168476,0.002514561,0.002725658,0.002339317,0.001448309,0.000205009,-0.001202068,-0.002578837,-0.003756967,-0.004619273,-0.00511399,-0.005255514,-0.00511254,-0.004787474,-0.004392679,-0.00402926,-0.003772671,-0.003667023,-0.003727363,-0.00394717,-0.004307358,-0.004783421,-0.005348669,-0.005973359,-0.006621172,-0.007245542,-0.007788399,-0.008183119,-0.008362036,-0.00826736,-0.00786317,-0.007145565,-0.006148383,-0.004942764,-0.003630205,-0.00233008,-0.001163698,-0.000237524,0.000371778,0.00062828,0.000542191,0.000169122,-0.000396612,-0.001033723,-0.001609147,-0.001994771,-0.00208346,-0.001802311,-0.001121439,-5.74E-05,0.00132877,0.002937979,0.004642504,0.006296821,0.007748647,0.00884971,0.009466509,0.009491686,0.008856399,0.007543186,0.005597567,0.003135437,0.000342787,-0.002535172,-0.005216712,-0.007416764,-0.008886369,-0.009451942,-0.009046821,-0.007728253,-0.00567529,-0.003166602,-0.00054116,0.001851756,0.003704575,0.004796342,0.005022723,0.004406166,0.003085004,0.001284149,-0.000726704,-0.002679437,-0.004349924,-0.00558913,-0.006337894,-0.006623746,-0.006541638,-0.006223625,-0.005804552
-0.007416764,-0.008886369,-0.009451942,-0.009046821,-0.007728253,-0.00567529,-0.003166602,-0.00054116,0.001851756,0.003704575,0.004796342,0.005022723,0.004406166,0.003085004,0.001284149,-0.000726704,-0.002679437,-0.004349924,-0.00558913,-0.006337894,-0.006623746,-0.006541638,-0.006223625,-0.005804552,-0.005391382,-0.005042721,-0.004762543,-0.004508719,-0.004213377,-0.003809247,-0.003254719,-0.002550708,-0.001744606,-0.000920092,-0.000175454,0.000403591,0.000768834,0.00092486,0.000929638,0.000879368,0.00088089,0.001018693,0.001325473,0.001764728,0.002231109,0.002569825,0.002611435,0.002214262,0.001304328,-9.70E-05,-0.001865019,-0.003785862,-0.005591135,-0.007005767,-0.007799741,-0.007833183,-0.007085916,-0.005665767,-0.00379415,-0.001771695,6.98E-05,0.001420455,0.002041613,0.001802558,0.00069924,-0.001148073,-0.003517189,-0.006122051,-0.008659375,-0.0108554,-0.012504542,-0.013493601,-0.013808321,-0.013522775,-0.012775563,-0.011739137,-0.010589358,-0.009481391,-0.008535561,-0.007833622,-0.007422845,-0.007323376,-0.00753388,-0.008031841,-0.008767443,-0.00965307,-0.010553055,-0.01127956,-0.011599863,-0.011257899,-0.010009207,-0.007664486,-0.004133752,0.000538349,0.006154809,0.012371977,0.018730257,0.024706379,0.029779526,0.033500676,0.035553687,0.035797988,0.034285854,0.031251594,0.027074638,0.022222763,0.017184766,0.01240341,0.008219161,0.004833268,0.002295319,0.000516185,-0.000697159,-0.00159225,-0.002416989,-0.003371095,-0.004572034,-0.006040983,-0.007709869,-0.009445962,-0.011086839,-0.012476804,-0.013496316,-0.014078574,-0.014211346,-0.013926231,-0.013280793,-0.012340499,-0.0111667,-0.009814508,-0.008340832,-0.006819305,-0.005356206,-0.004100532,-0.0032423,-0.002995731,-0.003567557,-0.005114446,-0.007696778,-0.011238036,-0.015499635,-0.020079951,-0.024443665,-0.027983521,-0.030111369,-0.030369485,-0.028547214,-0.024783052,-0.019629544,-0.014059149,-0.009394397,-0.00715562,-0.008833397,-0.015608878,-0.028060451,-0.045906433,-0.067837475,-0.091486754,-0.113570302,-0.130205122,-0.137382525,-0.131543458,-0.110177099,-0.072349351,-0.019068015,0.04659202,0.119648663,0.19366047,0.261419313,0.315802662,0.35066989,0.361674093,0.346868356,0.307012681,0.245530728,0.168117392,0.082050449,-0.0046963,-0.084412187,-0.150546062,-0.198417156,-0.225648843,-0.232278213,-0.22054457,-0.194407366,-0.158881116,-0.11929587,-0.080594356,-0.046761831,-0.020455745,-0.002865522,0.006205124,0.008073612,0.00479454,-0.001270692,-0.007860364,-0.013137985,-0.015900269,-0.015654114,-0.012571166,-0.007346006,-0.000994852,0.005364807,0.010716435,0.014299826,0.015702569,0.014883078,0.012132047,0.007987747,0.003125423,-0.001758087,-0.006046076,-0.0092768,-0.011184721,-0.011707926,-0.010966766,-0.009222201,-0.006823502,-0.004154318,-0.001584033,0.00057129,0.002076533,0.002793747,0.002687905,0.001823372,0.000352059,-0.001505946,-0.003488362,-0.005321755,-0.006755159,-0.007592747,-0.007721336,-0.007128485,-0.005907748,-0.004249248,-0.002415876,-0.000707692,0.000580883,0.001205158,0.0010091,-4.69E-05,-0.001874174,-0.00426253,-0.006905931,-0.009444555,-0.011518098,-0.012822853,-0.013163668,-0.01249168,-0.010920107,-0.008713412,-0.006249506,-0.003959741,-0.002256124,-0.001458483,-0.00173521,-0.00306935,-0.005257271,-0.007940915,-0.010667926,-0.01296834,-0.014433212,-0.014780421,-0.013895751,-0.011842691,-0.008840817,-0.005218768,-0.001352344,0.00239966,0.005749904,0.008518213,0.01064396,0.012175436,0.01324083,0.014008435,0.014644911,0.015279903,0.015983284,0.016758331,0.017550749,0.018270408,0.018820279,0.019125841,0.019158359,0.018946841,0.018575932,0.018170063,0.017867182,0.017787727,0.018005632,0.018527785,0.01928651,0.020146816,0.020926911,0.021427701,0.021465248,0.020899899,0.019656914,0.017735603,0.015206556,0.012198841,0.008880616,0.005437086,0.002049385,-0.001123074,-0.003955406,-0.006364871,-0.008313613,-0.009807082,-0.010888757,-0.011631751,-0.012127984,-0.012475872,-0.012767814,-0.013078948,-0.013458644,-0.013925778,-0.014468159,-0.015045727,-0.015596499,-0.016044077,-0.016305657,-0.016300094,-0.015956092,-0.015220936,-0.014069969,-0.012516309,-0.010619206,-0.008488543,-0.006282545,-0.004196373,-0.002440856,-0.001213019,-0.000662618,-0.000860956,-0.00177899,-0.00328081,-0.005136005,-0.007050569,-0.008711947,-0.009840297,-0.010236241,-0.009815551,-0.008623674,-0.006826944,-0.00468212,-0.002490241,-0.000543894,0.000921911,0.001766046,0.001958397,0.001575438,0.000776186,-0.000235811,-0.001256306,-0.002121022,-0.002735152,-0.003086076,-0.003237232,-0.003304922,-0.003423334,-0.003705601,-0.004209621,-0.00491653,-0.005727185,-0.006478188,-0.006974691,-0.00703335,-0.006526193,-0.005415623,-0.003772332,-0.001771461,0.000333001,0.002250807,0.003706493,0.004488531,0.004486714,0.003710548,0.002285586,0.00042927,-0.001588148,-0.003489425,-0.005034114,-0.006052703,-0.006466102,-0.006288706,-0.005616314,-0.004602574,-0.003428933,-0.002273375,-0.001282727,-0.000552272,-0.000115131,5.75E-05,4.59E-05,-3.76E-05,-7.32E-05,4.05E-05,0.000364096,0.000902127,0.001598907,0.002346081,0.003000976,0.003412576,0.003450333,0.003030478,0.002134946,0.000819426,-0.000790902,-0.002517228,-0.00415193,-0.005488417,-0.00635149,-0.00662387,-0.006265232,-0.005321115,-0.003920317,-0.002260655,-0.000584275,0.000854981,0.001828385,0.002168499,0.00179927,0.00075465,-0.000818609,-0.002676381,-0.004510266
