-0.082667436,-0.082792896,-0.081901774,-0.07981822,-0.076583884,-0.072500675,-0.068108117,-0.064098681,-0.061191947,-0.059998687,-0.06090646,-0.064009926,-0.069095653,-0.075677496,-0.08306904,-0.090476089,-0.097094197,-0.102201088,-0.105238268,-0.105877787,-0.104068658,-0.100054639,-0.094353848,-0.087693794,-0.080903661,-0.074777612,-0.069934555,-0.066706601,-0.065086481,-0.064752416,-0.065169647,-0.065746329,-0.066004532,-0.065720399,-0.064993983,-0.064227583,-0.064016426,-0.06497994,-0.067578355,-0.071963188,-0.077900452,-0.084785501,-0.091744406,-0.097795767,-0.102034351,-0.103796509,-0.102775827,-0.099071985,-0.093171439,-0.085870724,-0.078159857,-0.071084652,-0.065604805,-0.062462272,-0.062073265,-0.064457408,-0.069217481,-0.075580238,-0.082501403,-0.088826021,-0.093481499,-0.095668951,-0.095013506,-0.091639028,-0.08614739,-0.079503864,-0.072852551,-0.067302664,-0.063732665,-0.062653038,-0.06415166,-0.067923749,-0.073367814,-0.079715983,-0.086164596,-0.091978682,-0.096557983,-0.099467051,-0.100442218,-0.099390949,-0.096394119,-0.091712191,-0.085786789,-0.079224085,-0.072748329,-0.067122188,-0.063042336,-0.061029305,-0.061335835,-0.063895692,-0.068325704,-0.07398079,-0.080049334,-0.085668435,-0.090037285,-0.092511791,-0.092671741,-0.090359799,-0.085696241,-0.079073434,-0.071130772,-0.062706806,-0.054763914,-0.048284179,-0.044143008,-0.042977043,-0.045071059,-0.050290783,-0.05808267,-0.06754809,-0.077581556,-0.087046015,-0.094948094,-0.100576282,-0.103575511,-0.103949332,-0.102000245,-0.098233414,-0.093254583,-0.087688015,-0.082127252,-0.077115617,-0.073140815,-0.070623567,-0.069885506,-0.071094462,-0.074200482,-0.078887344,-0.084566697,-0.090433658,-0.095585659,-0.099186011,-0.100636829,-0.099718492,-0.096657603,-0.092101528,-0.087000392,-0.082420476,-0.079329772,-0.078402883,-0.079887292,-0.083558641,-0.088773279,-0.094607057,-0.100054029,-0.104249576,-0.106679507,-0.10733885,-0.106809862,-0.106237502,-0.107192221,-0.111424838,-0.12053621,-0.135603685,-0.156823349,-0.183237064,-0.212611355,-0.241518746,-0.265641503,-0.280277772,-0.280988598,-0.264290877,-0.228284153,-0.173103242,-0.101113749,-0.016808583,0.073588226,0.162758493,0.243081072,0.307472171,0.350168104,0.36735672,0.357586771,0.32191285,0.263763642,0.18855077,0.103063253,0.014716997,-0.069252292,-0.142554183,-0.200469811,-0.240258966,-0.261297863,-0.264938242,-0.254122479,-0.232828053,-0.205439486,-0.176151288,-0.148490388,-0.125015146,-0.107208292,-0.095542878,-0.089672274,-0.08868269,-0.091350239,-0.096360244,-0.102467738,-0.108597705,-0.113896497,-0.117750157,-0.119782523,-0.119839921,-0.117964018,-0.114352839,-0.109312431,-0.103206211,-0.09641247,-0.089299998,-0.082226437,-0.075555055,-0.069676654,-0.065018323,-0.062022572,-0.061089589,-0.062489344,-0.066264386,-0.072153026,-0.079562406,-0.08761065,-0.095239604,-0.1013798,-0.105133519,-0.105935251,-0.103653517,-0.098612463,-0.09153128,-0.083398328,-0.075309621,-0.06830496,-0.063229834,-0.060640185,-0.060754844,-0.063451045,-0.068294294,-0.074594766,-0.081485877,-0.088023301,-0.093301735,-0.096581372,-0.097408122,-0.095704751,-0.091808336,-0.086435592,-0.080571524,-0.075295576,-0.071577434,-0.070086014,-0.071055636,-0.074241763,-0.0789778,-0.084319874,-0.089245391,-0.092859274,-0.094562191,-0.094147056,-0.091809438,-0.088078432,-0.083691142,-0.079442588,-0.076042566,-0.074003831,-0.073575332,-0.074723904,-0.077160206,-0.080400427,-0.083853379,-0.086921436,-0.089102132,-0.090075295,-0.089759603,-0.088324634,-0.08615109,-0.083742882,-0.08160774,-0.080134048,-0.079496299,-0.079617063,-0.080199449,-0.080824039,-0.081084001,-0.080718345,-0.079701169,-0.078256153,-0.076787562,-0.075745315,-0.075463796,-0.076024671,-0.077189086,-0.078425229,-0.079029072,-0.078307804,-0.075775854,-0.071308576,-0.065209975,-0.058174678,-0.051153317,-0.045155835,-0.041041942,-0.039348441,-0.040190603,-0.043253888,-0.047869899,-0.053152724,-0.058162794,-0.062065553,-0.064259508,-0.064458571,-0.062723342,-0.059442795,-0.055271631,-0.051030709,-0.047580605,-0.04568247,-0.045865598,-0.048325148,-0.052873432,-0.05896168,-0.065776107,-0.072394724,-0.077974439,-0.081926951,-0.084041117,-0.084520345,-0.083923819,-0.083024752,-0.082620315,-0.083340108,-0.085499533,-0.089031479,-0.09350846,-0.098244244,-0.102445706,-0.105376892,-0.106499372,-0.10556385,-0.102643113,-0.098110427,-0.092576647,-0.086802102,-0.081596927,-0.077719116,-0.075776372,-0.076137766,-0.078864261,-0.083670899,-0.089934691,-0.096758358,-0.103090225,-0.107886789,-0.110290814,-0.109789121,-0.1063144,-0.100265519,-0.092438886,-0.083884476,-0.075718143,-0.068931385,-0.064238302,-0.061987792,-0.062151163,-0.064376866,-0.068090471,-0.072612427,-0.077268925,-0.081479663,-0.084816394,-0.08703391,-0.088078327,-0.088076482,-0.087307103,-0.086152441,-0.085030491,-0.084313285,-0.084244175,-0.084872997,-0.086029025,-0.087345611,-0.088337924,-0.088519688,-0.08753128,-0.08524502,-0.081817103,-0.077668924,-0.073400067,-0.069654816,-0.0669775,-0.065694903,-0.065855408,-0.067237419,-0.069419462,-0.071887873,-0.074150024,-0.075823654,-0.076684286,-0.07666829,-0.075843158,-0.074364293,-0.07243699,-0.070294542,-0.068192393,-0.066408796,-0.065238511,-0.0649692,-0.065838755,-0.067982274,-0.071384958,-0.07585866,-0.08105407,-0.086509566,-0.091725741,-0.096246048,-0.099722273,-0.101949277,-0.102864434,-0.102519239,-0.101038923,-0.098587649,-0.095351357,-0.091540142,-0.087401517,-0.083229524,-0.079355216,-0.076111595,-0.073777611,-0.072516672,-0.072330645,-0.073047834
-0.091057489,-0.083414078,-0.076051744,-0.069757151,-0.065116503,-0.062463778,-0.061863927,-0.063126467,-0.065845386,-0.0694625,-0.073350979,-0.076912257,-0.079673802,-0.081369858,-0.081985439,-0.081748296,-0.081064412,-0.080407608,-0.080188454,-0.080636697,-0.081730947,-0.083198342,-0.08458784,-0.085399254,-0.085232752,-0.083916106,-0.081572258,-0.078606364,-0.075614457,-0.073238207,-0.072005088,-0.07219631,-0.073775795,-0.076395504,-0.079471671,-0.082309217,-0.084242495,-0.084761097,-0.083597962,-0.080769414,-0.076568424,-0.071519866,-0.066308897,-0.061692067,-0.058398324,-0.057026423,-0.057947664,-0.061227391,-0.066582542,-0.073392207,-0.080771499,-0.087705986,-0.09322763,-0.096598443,-0.097460509,-0.095914182,-0.092500792,-0.088088843,-0.083687226,-0.080228424,-0.078372939,-0.078380858,-0.08007883,-0.082926187,-0.086159393,-0.088976427,-0.090716276,-0.090994244,-0.089768358,-0.087330529,-0.084232979,-0.081171415,-0.078850369,-0.077853845,-0.078538988,-0.080964644,-0.084862374,-0.089654616,-0.094521906,-0.098516402,-0.100711471,-0.100367592,-0.097086005,-0.090917177,-0.082394526,-0.07247617,-0.062397035,-0.05345578,-0.046779357,-0.043116736,-0.04270884,-0.045264413,-0.050045832,-0.056041732,-0.062182689,-0.067547782,-0.071515779,-0.073832645,-0.07459116,-0.0741412,-0.072964174,-0.071548593,-0.070296218,-0.069473557,-0.069207351,-0.069510666,-0.070321442,-0.071538095,-0.073044307,-0.074723348,-0.076467457,-0.078188011,-0.079828104,-0.081373533,-0.082854409,-0.084330396,-0.085858266,-0.087449031,-0.089029579,-0.090426612,-0.091386428,-0.09163318,-0.09095409,-0.08928776,-0.086786213,-0.083825595,-0.080953945,-0.078783325,-0.077851671,-0.078490928,-0.080738237,-0.084315827,-0.088686114,-0.093167404,-0.097079162,-0.099878912,-0.101257373,-0.101172206,-0.099819164,-0.097556373,-0.094808121,-0.091976332,-0.089381565,-0.087243985,-0.085702555,-0.084861443,-0.084848111,-0.085867552,-0.088239804,-0.09241086,-0.098929191,-0.108381484,-0.121283669,-0.137929099,-0.158206082,-0.181410898,-0.206096447,-0.230005363,-0.250134475,-0.262961658,-0.264836998,-0.252503038,-0.223672172,-0.177562957,-0.115289401,-0.040012125,0.043203819,0.127829749,0.206564497,0.272181818,0.318411066,0.340721426,0.336895512,0.307311669,0.254898813,0.184774956,0.103623465,0.018894259,-0.062062874,-0.132820002,-0.188543728,-0.226436435,-0.245896114,-0.248384238,-0.237032721,-0.216058754,-0.19008387,-0.163465626,-0.139743723,-0.121277824,-0.109116125,-0.10308982,-0.102088115,-0.104440073,-0.108318833,-0.112091606,-0.114561805,-0.115080517,-0.113535016,-0.110244762,-0.105806367,-0.100927998,-0.096283901,-0.092406324,-0.089619965,-0.088016435,-0.087463575,-0.087644902,-0.088125173,-0.088436437,-0.088174454,-0.087089459,-0.085151017,-0.082567513,-0.079748422,-0.077211209,-0.07545098,-0.074804627,-0.07534704,-0.076851762,-0.078832702,-0.080661124,-0.081729733,-0.081620374,-0.080228833,-0.077810829,-0.074934721,-0.072352192,-0.070820577,-0.070922806,-0.072929994,-0.076738242,-0.081890174,-0.087669685,-0.093241875,-0.097803235,-0.100710407,-0.101566587,-0.100258302,-0.096947134,-0.092027855,-0.086065884,-0.07972438,-0.07368767,-0.068585458,-0.064922612,-0.063021504,-0.06298588,-0.064694708,-0.067830201,-0.071936647,-0.076498336,-0.081018811,-0.085082874,-0.088388184,-0.090743526,-0.092042467,-0.092229756,-0.09127989,-0.089201578,-0.08606999,-0.08207488,-0.0775623,-0.073044915,-0.069162825,-0.066591698,-0.065913226,-0.067478354,-0.071300744,-0.077013552,-0.083907504,-0.091046788,-0.097437932,-0.102212355,-0.104779947,-0.104919781,-0.102791822,-0.098874437,-0.093850205,-0.088471884,-0.083439617,-0.079311064,-0.076452585,-0.07502698,-0.075005923,-0.076194563,-0.078260673,-0.080767524,-0.083214572,-0.085090205,-0.085935977,-0.085414222,-0.083364429,-0.079831956,-0.075057458,-0.069425849,-0.063386296,-0.057364903,-0.051695099,-0.046585515,-0.042132566,-0.038369326,-0.035329247,-0.033097661,-0.031828319,-0.031715013,-0.032925413,-0.03551926,-0.039380793,-0.044192466,-0.049464742,-0.054618862,-0.059102354,-0.062506243,-0.064652118,-0.065626277,-0.06575375,-0.065521718,-0.065474271,-0.066105069,-0.067770797,-0.070638766,-0.074670798,-0.079636828,-0.08514813,-0.09070172,-0.09573219,-0.099671535,-0.10201845,-0.102415076,-0.100722258,-0.09707752,-0.091916753,-0.085943958,-0.08004364,-0.075145225,-0.072063591,-0.071349388,-0.073183526,-0.07734103,-0.083232826,-0.090014802,-0.096737605,-0.102502744,-0.106592706,-0.108553517,-0.10822335,-0.105714968,-0.101368536,-0.095692511,-0.089304851,-0.082878239,-0.077085725,-0.072540805,-0.069729497,-0.068939906,-0.070203151,-0.07326417,-0.077598644,-0.082482848,-0.087109093,-0.09072535,-0.092768588,-0.092960933,-0.09134657,-0.088262775,-0.084255704,-0.079965018,-0.076007016,-0.072882237,-0.070922525,-0.070278597,-0.070937381,-0.072752794,-0.075475498,-0.078774886,-0.082256096,-0.085481689,-0.088008454,-0.089443955,-0.08951712,-0.088146849,-0.085486797,-0.08192651,-0.078039035,-0.074480274,-0.071860562,-0.070618935,-0.070931539,-0.072677058,-0.075466461,-0.078727053,-0.081817278,-0.084143164,-0.085251006,-0.084881616,-0.082984964,-0.079705015,-0.075349427,-0.070356392,-0.065263429,-0.060674349,-0.057215495,-0.055473516,-0.055914451,-0.058794863,-0.064085414,-0.071430926,-0.08016603,-0.08939258,-0.098107962,-0.105358102,-0.110380792,-0.11270722,-0.112201677,-0.109037473,-0.103624802,-0.096517781,-0.088329324,-0.079674007,-0.071144145,-0.063308965,-0.05671688,-0.051880273,-0.049231088,-0.04905039,-0.051390108
-0.088426771,-0.09118137,-0.091735257,-0.090333378,-0.087496389,-0.08390246,-0.080255099,-0.077166297,-0.075075207,-0.074209723,-0.07458641,-0.076037144,-0.078249866,-0.080814838,-0.08327359,-0.085171849,-0.086117825,-0.085843193,-0.084257961,-0.081485594,-0.077864301,-0.073905926,-0.070214196,-0.067376215,-0.065850529,-0.065878349,-0.067439734,-0.070265067,-0.073897364,-0.077787803,-0.081399376,-0.084294121,-0.086187098,-0.086962169,-0.086656162,-0.085425262,-0.083508291,-0.081196565,-0.07881197,-0.076687751,-0.075143534,-0.07444876,-0.074775847,-0.076152898,-0.078431617,-0.081286182,-0.084252293,-0.086804117,-0.088454376,-0.088853876,-0.087864925,-0.085589353,-0.082344424,-0.078594584,-0.074858754,-0.071617891,-0.069244364,-0.067964959,-0.067857098,-0.068867732,-0.070840214,-0.073537188,-0.076655503,-0.079838247,-0.082694848,-0.084839553,-0.085951261,-0.085846236,-0.08454451,-0.08230566,-0.079613414,-0.07710108,-0.075427569,-0.075130953,-0.076496758,-0.079477472,-0.08368732,-0.088475866,-0.093061797,-0.096691501,-0.098781278,-0.099008831,-0.097336662,-0.09397114,-0.089279263,-0.083694554,-0.077641594,-0.07149694,-0.065587447,-0.060211862,-0.055663429,-0.05223289,-0.050181583,-0.049688967,-0.050792067,-0.053340751,-0.056990014,-0.061239424,-0.065514675,-0.069272308,-0.072100949,-0.073793506,-0.074373806,-0.074074714,-0.073277904,-0.072433852,-0.07198202,-0.072286207,-0.073591598,-0.076001988,-0.079471322,-0.083804248,-0.088664689,-0.093596545,-0.098063138,-0.101509711,-0.103446207,-0.103538016,-0.101684501,-0.098062521,-0.093117403,-0.087495973,-0.081932269,-0.077111116,-0.073542846,-0.071480922,-0.070902992,-0.07155823,-0.073065262,-0.075031274,-0.077158361,-0.079308853,-0.081515039,-0.08393558,-0.086775522,-0.090194832,-0.094230151,-0.09874728,-0.103431486,-0.107813034,-0.111319911,-0.113349101,-0.113350641,-0.110921779,-0.1059086,-0.098507941,-0.08935405,-0.079565746,-0.070725359,-0.064764669,-0.063747061,-0.069557503,-0.083537599,-0.106124984,-0.136567748,-0.172781143,-0.2113949,-0.248008772,-0.277637992,-0.295296957,-0.29664521,-0.278608551,-0.239890432,-0.181302423,-0.105863959,-0.01864713,0.073630527,0.163234799,0.242207819,0.303243386,0.340542978,0.350540802,0.332390464,0.288128097,0.222467146,0.142234306,0.055515302,-0.029368509,-0.104898432,-0.165251737,-0.206914875,-0.228932318,-0.232772682,-0.221860671,-0.200876994,-0.174958553,-0.148933731,-0.126705232,-0.110853523,-0.102487934,-0.101329974,-0.105981517,-0.114312206,-0.123895312,-0.132426203,-0.138069068,-0.139692629,-0.13697264,-0.13035731,-0.120910595,-0.110066124,-0.099338591,-0.090046583,-0.083098065,-0.078876498,-0.077243449,-0.077647553,-0.079305998,-0.081409817,-0.083302168,-0.084589958,-0.085170223,-0.085177172,-0.084876453,-0.084544304,-0.084368223,-0.084394127,-0.084527453,-0.084578481,-0.084330723,-0.083608535,-0.08232554,-0.080505795,-0.078280127,-0.075866657,-0.073545284,-0.071631639,-0.070449743,-0.070298237,-0.071405334,-0.073873174,-0.077620947,-0.082343966,-0.08750868,-0.09239876,-0.096215194,-0.098217063,-0.097874728,-0.094998967,-0.089811721,-0.082936679,-0.075307606,-0.068013133,-0.062112395,-0.058461676,-0.057586866,-0.059622275,-0.064318366,-0.071105118,-0.079188625,-0.087657968,-0.095585822,-0.102115767,-0.106537151,-0.10835133,-0.107330126,-0.103560677,-0.097464142,-0.089773397,-0.081459279,-0.073606003,-0.067250983,-0.063217394,-0.06197459,-0.063558686,-0.067573309,-0.0732719,-0.079703415,-0.085888634,-0.090988584,-0.094431219,-0.095975282,-0.095706901,-0.093979793,-0.091319791,-0.088317001,-0.085525185,-0.083380745,-0.082146573,-0.081881593,-0.082435834,-0.083472025,-0.084515547,-0.085032555,-0.084530417,-0.082666311,-0.079342036,-0.074759668,-0.069416606,-0.064030424,-0.059401528,-0.056239927,-0.054995751,-0.055736451,-0.058105048,-0.061374815,-0.064591648,-0.066772792,-0.06711617,-0.065172271,-0.060940799,-0.054873655,-0.047788433,-0.040716071,-0.034717828,-0.03070838,-0.029314936,-0.030790444,-0.034986666,-0.041383405,-0.049164956,-0.057332929,-0.064843859,-0.070758296,-0.074384624,-0.075396788,-0.073903171,-0.070446895,-0.065927637,-0.061450714,-0.058127298,-0.056864758,-0.058192906,-0.062166923,-0.068370976,-0.076021999,-0.084147494,-0.091792232,-0.098202146,-0.102941754,-0.105921699,-0.107339165,-0.107558006,-0.106970114,-0.105880772,-0.104448878,-0.102692499,-0.100548249,-0.097956763,-0.094940663,-0.091647181,-0.088341905,-0.085357633,-0.083016808,-0.081553095,-0.081055667,-0.081450584,-0.082521101,-0.083957519,-0.085420859,-0.086604205,-0.087280148,-0.087329227,-0.086749908,-0.085653223,-0.08424475,-0.082794661,-0.081595393,-0.08090794,-0.080902223,-0.081602739,-0.082855015,-0.084328261,-0.085563392,-0.086064026,-0.085414208,-0.08339513,-0.08006853,-0.075799467,-0.071205373,-0.067038016,-0.064024496,-0.062706272,-0.063317302,-0.06573257,-0.069499399,-0.073941856,-0.078309816,-0.081934448,-0.084353282,-0.08537947,-0.085106857,-0.083859402,-0.082105216,-0.080359262,-0.079094963,-0.078676487,-0.079314563,-0.081042806,-0.08371049,-0.086990545,-0.090405589,-0.093376707,-0.095297192,-0.095626609,-0.093991569,-0.090272413,-0.084653254,-0.077618553,-0.069891591,-0.062325499,-0.055770663,-0.050948799,-0.048361114,-0.048246739,-0.050591644,-0.05517344,-0.061618959,-0.069452315,-0.078120821,-0.087000556,-0.095396783,-0.10256109,-0.107743798,-0.110287452,-0.109749309,-0.106024147,-0.099430011,-0.090722723,-0.08102018,-0.071640684,-0.063883631,-0.058798552,-0.056993959,-0.058529133,-0.062912261,-0.069203235
-0.078564942,-0.072560859,-0.067910733,-0.065182035,-0.064623419,-0.066123867,-0.069245422,-0.073322097,-0.077600135,-0.08138477,-0.084158963,-0.085649816,-0.08583455,-0.084894648,-0.083138684,-0.080918326,-0.078558008,-0.076309566,-0.074332965,-0.072697078,-0.07139247,-0.070350595,-0.06946844,-0.068640659,-0.067800541,-0.066966027,-0.066279822,-0.066027042,-0.066613696,-0.068496641,-0.072069589,-0.077526368,-0.084736173,-0.093170302,-0.101912706,-0.109768021,-0.115455262,-0.117850388,-0.116224248,-0.110419548,-0.10092302,-0.088813474,-0.075596006,-0.062958806,-0.052504631,-0.045510444,-0.042756908,-0.044449105,-0.050227995,-0.059254966,-0.070343422,-0.082111883,-0.093139693,-0.102114533,-0.107966387,-0.109983086,-0.107898946,-0.101943286,-0.09283375,-0.081703562,-0.069962508,-0.059106454,-0.050504765,-0.045204034,-0.043786074,-0.046307474,-0.052329547,-0.061026695,-0.071344111,-0.082167432,-0.092469433,-0.101410527,-0.108386195,-0.113029729,-0.115187972,-0.114888834,-0.112313185,-0.107774032,-0.101697269,-0.094594634,-0.08702216,-0.079524874,-0.072577109,-0.06653339,-0.06160432,-0.057864988,-0.055292397,-0.053817709,-0.053373083,-0.05391443,-0.055410458,-0.057801845,-0.060947315,-0.064580761,-0.068302198,-0.071615315,-0.074008809,-0.075063077,-0.074553595,-0.072521195,-0.069287901,-0.065412223,-0.061594596,-0.058556523,-0.056921956,-0.057125548,-0.059361801,-0.06357614,-0.06948844,-0.07663486,-0.08441579,-0.092144287,-0.099096806,-0.104572138,-0.107963088,-0.108838533,-0.107024045,-0.10266155,-0.096226604,-0.088487887,-0.08040659,-0.072989716,-0.067125603,-0.063437245,-0.062186361,-0.063249142,-0.066166732,-0.070255302,-0.074747514,-0.078932773,-0.082268415,-0.084445352,-0.085405198,-0.085316872,-0.08452615,-0.083491134,-0.08271217,-0.082659958,-0.083703581,-0.08604253,-0.089652337,-0.094259086,-0.099359722,-0.104299883,-0.108408347,-0.111169986,-0.112402411,-0.112391351,-0.111940888,-0.112308412,-0.115018098,-0.121575079,-0.133127741,-0.150141017,-0.172145352,-0.197613874,-0.223998077,-0.247925668,-0.265539295,-0.272936054,-0.266656751,-0.244169969,-0.204296924,-0.147526551,-0.076175743,0.00564189,0.092261461,0.176927827,0.25244472,0.311951375,0.349734908,0.361965697,0.347239833,0.306831636,0.244599542,0.166543977,0.080075145,-0.006900749,-0.086937597,-0.153904272,-0.203617234,-0.234172913,-0.24595558,-0.241348794,-0.224219981,-0.199272121,-0.171362909,-0.144882667,-0.123262797,-0.10866181,-0.101849961,-0.102288782,-0.108379333,-0.117833822,-0.128110738,-0.136845946,-0.142213785,-0.143164423,-0.139506088,-0.13182978,-0.121304073,-0.109391722,-0.09755211,-0.086990964,-0.078502069,-0.072419684,-0.068672249,-0.066905438,-0.066631272,-0.067361841,-0.068699025,-0.070370215,-0.072217846,-0.07416209,-0.076158693,-0.078168322,-0.08014366,-0.082030544,-0.083773842,-0.08531923,-0.086607527,-0.087565561,-0.088102602,-0.088121477,-0.08754782,-0.086371864,-0.084688519,-0.08271744,-0.080787973,-0.07928402,-0.078557871,-0.078834979,-0.080138255,-0.082257883,-0.084780726,-0.087175836,-0.088915025,-0.089595924,-0.089033501,-0.087295294,-0.084672563,-0.0815986,-0.078540191,-0.075894186,-0.07391669,-0.072699765,-0.072194476,-0.072265246,-0.072753291,-0.073528046,-0.074513565,-0.07568802,-0.077064225,-0.078663832,-0.080496644,-0.082550533,-0.084790284,-0.087158729,-0.089573276,-0.091915347,-0.094017154,-0.095656068,-0.096568249,-0.09648864,-0.095214805,-0.092680822,-0.089019039,-0.084585883,-0.079934807,-0.075733495,-0.072639356,-0.071161642,-0.071545016,-0.073705607,-0.077237298,-0.081487215,-0.085681194,-0.089067919,-0.091048029,-0.09126184,-0.089623307,-0.086303272,-0.081676728,-0.076253501,-0.070608979,-0.065323806,-0.06093297,-0.057879537,-0.05646852,-0.056821701,-0.05884158,-0.062198005,-0.066350936,-0.070616006,-0.074267626,-0.076661481,-0.077349168,-0.076156509,-0.073204833,-0.068869486,-0.063687204,-0.058238113,-0.053034327,-0.04844327,-0.044661493,-0.041738157,-0.039632294,-0.038279363,-0.037643019,-0.037736608,-0.038611924,-0.040325222,-0.042897773,-0.046288097,-0.050386102,-0.055029076,-0.060030121,-0.065205205,-0.070387019,-0.075421233,-0.080150125,-0.084395665,-0.087955796,-0.090622825,-0.092223379,-0.092669103,-0.092000517,-0.090406263,-0.088206868,-0.085803812,-0.083606863,-0.081960529,-0.081091134,-0.081088784,-0.081926071,-0.083502286,-0.085693187,-0.088385324,-0.091481166,-0.094874021,-0.098405318,-0.101825843,-0.104783395,-0.106851314,-0.107598133,-0.106683106,-0.103951304,-0.099499372,-0.093690098,-0.087108344,-0.080467795,-0.074491651,-0.06979648,-0.066805257,-0.065704821,-0.066448905,-0.068795526,-0.072361106,-0.076674688,-0.081222668,-0.085483854,-0.08896188,-0.091223908,-0.091950023,-0.090989025,-0.08840724,-0.084512017,-0.079833696,-0.075059216,-0.070924483,-0.068086266,-0.067002782,-0.067851829,-0.070506021,-0.07456921,-0.079461721,-0.084529911,-0.089151822,-0.0928159,-0.095161707,-0.095985307,-0.095222664,-0.092928056,-0.089260692,-0.084483355,-0.078966615,-0.073185276,-0.067693526,-0.063071913,-0.059850262,-0.058421638,-0.058968857,-0.061424193,-0.065474723,-0.070613019,-0.076220238,-0.081660477,-0.086364416,-0.089886679,-0.091932159,-0.092357458,-0.091160198,-0.088468949,-0.084540176,-0.079759125,-0.074633284,-0.069764206,-0.065787971,-0.063285375,-0.062676227,-0.064122811,-0.067470882,-0.072250488,-0.077744461,-0.083114043,-0.087554534,-0.090444696,-0.091454928,-0.090590599,-0.088164714,-0.08471251,-0.080873948,-0.077274626,-0.074430776,-0.072692456,-0.072225474,-0.0730221
-0.05896929,-0.055571662,-0.055313548,-0.058412386,-0.064572728,-0.07303491,-0.082699919,-0.092301371,-0.100590406,-0.106503014,-0.109288895,-0.108592145,-0.10448303,-0.097444657,-0.088318966,-0.078215367,-0.068385485,-0.060070985,-0.054338247,-0.051921682,-0.053102967,-0.057652919,-0.06485432,-0.073608598,-0.082610677,-0.090559766,-0.096364672,-0.099303508,-0.099109206,-0.095970816,-0.090460322,-0.083409931,-0.075771298,-0.068485023,-0.062378308,-0.058095688,-0.056057299,-0.05643491,-0.0591387,-0.063815117,-0.069863914,-0.076486001,-0.082770379,-0.087818204,-0.090888341,-0.091536578,-0.08971527,-0.085804515,-0.080559963,-0.074982266,-0.070133237,-0.066937746,-0.066014081,-0.067567836,-0.071368037,-0.076804279,-0.083006109,-0.088995383,-0.093840769,-0.096789836,-0.097364536,-0.095416064,-0.091141557,-0.08506664,-0.077995802,-0.070930059,-0.064951569,-0.061079826,-0.060113136,-0.062479204,-0.068125476,-0.076479173,-0.086496886,-0.096805455,-0.10591415,-0.112459178,-0.115431329,-0.114339787,-0.109279532,-0.100892503,-0.090237036,-0.0785992,-0.067288514,-0.057457518,-0.049972347,-0.045344666,-0.043720033,-0.044908436,-0.048440838,-0.053639818,-0.059698824,-0.065769377,-0.071055794,-0.074912561,-0.076932683,-0.077009886,-0.075357219,-0.072470941,-0.069040752,-0.065821696,-0.063494593,-0.062546359,-0.063196924,-0.0653868,-0.068822674,-0.073063099,-0.077617378,-0.082030751,-0.085937472,-0.089076793,-0.09128026,-0.092447255,-0.092526672,-0.091516311,-0.089480775,-0.086578165,-0.083079593,-0.079366228,-0.075895669,-0.073140312,-0.071510677,-0.071282628,-0.072546838,-0.075192177,-0.078924703,-0.083314376,-0.087856106,-0.0920317,-0.095364056,-0.097461646,-0.098056436,-0.097039251,-0.094492549,-0.090713596,-0.086214802,-0.081686296,-0.077911382,-0.075637802,-0.075423708,-0.077491478,-0.081629423,-0.087177262,-0.093115437,-0.098254184,-0.10149206,-0.102092598,-0.099918074,-0.095564054,-0.090356441,-0.086199566,-0.085292938,-0.089758848,-0.101238578,-0.120519658,-0.147251525,-0.17979502,-0.215235478,-0.249572003,-0.278077601,-0.295805915,-0.29820017,-0.281739756,-0.244542723,-0.186833082,-0.111185432,-0.022479558,0.072465558,0.165559712,0.248339885,0.31298157,0.35327729,0.365433461,0.34856083,0.304781124,0.238934024,0.15793221,0.069865868,-0.017007479,-0.095241591,-0.159015705,-0.204684072,-0.231005165,-0.239043459,-0.231781781,-0.213518527,-0.189147848,-0.163430605,-0.14035912,-0.12270032,-0.111771966,-0.107468793,-0.108514778,-0.112880924,-0.118281665,-0.122652894,-0.124523491,-0.123218835,-0.118873543,-0.112272838,-0.104577528,-0.097008212,-0.090565546,-0.085845999,-0.082982201,-0.081702786,-0.081477807,-0.081699669,-0.081848727,-0.081605435,-0.080891609,-0.079844754,-0.078745325,-0.077923689,-0.077671517,-0.078174298,-0.079471957,-0.081447019,-0.083836302,-0.086262329,-0.088282299,-0.089452845,-0.089406342,-0.087929371,-0.08502829,-0.080963875,-0.076239398,-0.07153518,-0.067595953,-0.065091526,-0.064481338,-0.065915755,-0.069199667,-0.073828841,-0.079090813,-0.084205597,-0.088472208,-0.091387552,-0.092714039,-0.092487708,-0.090974467,-0.088593285,-0.085828977,-0.083153509,-0.080966281,-0.079554761,-0.079070852,-0.079517637,-0.080744872,-0.08245724,-0.084243041,-0.085629916,-0.086167488,-0.085526401,-0.083592976,-0.08053322,-0.076802373,-0.073087239,-0.070185648,-0.068845475,-0.069599023,-0.072632482,-0.077723128,-0.08426052,-0.091347178,-0.097955113,-0.103102662,-0.106014327,-0.106234267,-0.103678452,-0.098625985,-0.091662112,-0.083590876,-0.075334267,-0.067829428,-0.061929633,-0.05831174,-0.057393937,-0.059271915,-0.0636861,-0.070033718,-0.077434811,-0.084850761,-0.091240078,-0.095723682,-0.097725494,-0.09705691,-0.093925877,-0.088869697,-0.082629781,-0.076000594,-0.069689481,-0.064217893,-0.05987997,-0.056756683,-0.05476857,-0.053742344,-0.053468119,-0.053733219,-0.05433132,-0.055056808,-0.05569953,-0.056052894,-0.055939892,-0.055251087,-0.053980417,-0.05224261,-0.05026108,-0.048325519,-0.046729908,-0.045709757,-0.04539851,-0.04581671,-0.046895806,-0.048525966,-0.050608641,-0.053093361,-0.055984789,-0.059318029,-0.063112864,-0.067326167,-0.071822782,-0.076378346,-0.080715317,-0.084560776,-0.087706103,-0.090047876,-0.091596466,-0.092451178,-0.092753531,-0.092638366,-0.092202767,-0.091504947,-0.090592277,-0.089544657,-0.0885115,-0.0877212,-0.087451228,-0.087961799,-0.089410927,-0.091778187,-0.094824722,-0.098107622,-0.101050766,-0.103056912,-0.103633082,-0.102497323,-0.099640644,-0.095331145,-0.090063272,-0.084468517,-0.079210805,-0.07488894,-0.071961536,-0.070700329,-0.071169757,-0.073226925,-0.076537068,-0.080603564,-0.084815234,-0.088514147,-0.091082972,-0.092043088,-0.091146241,-0.088437456,-0.084268487,-0.079250207,-0.074147217,-0.069734178,-0.06664567,-0.065255261,-0.065613107,-0.067456337,-0.070287157,-0.073496024,-0.076496765,-0.078840098,-0.080281244,-0.080792541,-0.080527978,-0.07975803,-0.078797029,-0.077941331,-0.077427464,-0.077409564,-0.07794893,-0.079007774,-0.08044386,-0.082009838,-0.083366702,-0.084121383,-0.083892714,-0.082399384,-0.079551842,-0.075522415,-0.070767892,-0.065987954,-0.062019045,-0.059681776,-0.059614864,-0.062134711,-0.067154907,-0.074185206,-0.082409594,-0.09082389,-0.098400591,-0.104245629,-0.107718289,-0.108498455,-0.106599801,-0.102338717,-0.096273838,-0.089129908,-0.081714781,-0.074833191,-0.069198849,-0.065348544,-0.063567353,-0.063839415,-0.065840427,-0.068983431,-0.072518458,-0.075671917,-0.077798046,-0.078507443,-0.077740102,-0.075762961,-0.073091455
-0.06752933,-0.069048005,-0.070848369,-0.072533808,-0.073814498,-0.074558725,-0.07479524,-0.074676062,-0.0744191,-0.074251761,-0.074370618,-0.074921873,-0.075997438,-0.077636033,-0.079819781,-0.082463094,-0.085398964,-0.088373797,-0.091062464,-0.093109514,-0.094192485,-0.094092904,-0.092754449,-0.09030861,-0.087056635,-0.083409713,-0.079802816,-0.076606371,-0.074060769,-0.072251092,-0.071126026,-0.070550532,-0.070371457,-0.070472664,-0.070801983,-0.071364087,-0.072186642,-0.073276733,-0.074587183,-0.076007144,-0.077380675,-0.078545249,-0.079374144,-0.079805486,-0.079846879,-0.0795553,-0.079002816,-0.07824506,-0.077308356,-0.076203233,-0.074959753,-0.07366882,-0.072508087,-0.071734203,-0.071634362,-0.072445772,-0.074266044,-0.076985043,-0.080265904,-0.083590027,-0.086361524,-0.088047196,-0.088315089,-0.087132622,-0.08479508,-0.081874055,-0.079097216,-0.077189037,-0.076711351,-0.077940754,-0.080808267,-0.084909681,-0.089578157,-0.093998748,-0.097339933,-0.098879659,-0.098110048,-0.094812179,-0.08909743,-0.081413554,-0.07251325,-0.063382782,-0.055130765,-0.048843713,-0.045424309,-0.045437539,-0.048994988,-0.05570541,-0.064709129,-0.074796692,-0.08459292,-0.092771617,-0.098258658,-0.100384367,-0.098959184,-0.094265538,-0.086977809,-0.07803592,-0.068502895,-0.059432625,-0.051763815,-0.046244425,-0.043382228,-0.043414307,-0.046291249,-0.051677862,-0.058977543,-0.067388312,-0.075993501,-0.083880266,-0.090267996,-0.094621029,-0.096719461,-0.09666978,-0.094851789,-0.091815333,-0.088154222,-0.084390559,-0.080898371,-0.07788219,-0.075408429,-0.073471006,-0.072063084,-0.071227086,-0.07106494,-0.071706087,-0.073246648,-0.075683772,-0.078871127,-0.08251439,-0.086212253,-0.089533607,-0.092110233,-0.093719902,-0.094338153,-0.094146348,-0.093495299,-0.092834087,-0.092619908,-0.09322623,-0.094864504,-0.09753108,-0.100987979,-0.104784007,-0.108320618,-0.110962808,-0.11218754,-0.111750738,-0.109841074,-0.107179047,-0.105018438,-0.105018022,-0.108975203,-0.118446302,-0.134313166,-0.156382721,-0.18311613,-0.211571907,-0.237612865,-0.256376504,-0.262953316,-0.253170201,-0.224347876,-0.175898333,-0.109651521,-0.029844146,0.057241613,0.143946273,0.222118562,0.284097867,0.323660783,0.336804554,0.322261817,0.281675275,0.21940411,0.14198204,0.057294867,-0.026412922,-0.101564208,-0.162160269,-0.204443134,-0.227213156,-0.231761735,-0.22144411,-0.200978356,-0.175601638,-0.150233736,-0.128787182,-0.113726047,-0.105920576,-0.104785486,-0.108638863,-0.115186477,-0.122027593,-0.127091623,-0.128943707,-0.126932381,-0.12118497,-0.112479973,-0.102037966,-0.09127479,-0.081556255,-0.073986157,-0.069251623,-0.067542318,-0.068552048,-0.071561538,-0.075589413,-0.079585941,-0.082634103,-0.084118489,-0.083827193,-0.081965533,-0.079080463,-0.075915876,-0.07323553,-0.071657063,-0.071535407,-0.072918369,-0.075576209,-0.079087158,-0.082948157,-0.086677963,-0.089888053,-0.09231161,-0.093796575,-0.094279694,-0.093761109,-0.092293315,-0.089987246,-0.087026945,-0.08367755,-0.08027219,-0.077171447,-0.074701136,-0.073085226,-0.072396001,-0.072540541,-0.073291767,-0.074357428,-0.075466877,-0.076448362,-0.077271697,-0.078042118,-0.078947168,-0.080173977,-0.081824081,-0.08385348,-0.086057139,-0.088102597,-0.08960206,-0.090201333,-0.089660689,-0.087907638,-0.085052053,-0.081365997,-0.077239493,-0.073126654,-0.069493893,-0.066775546,-0.065335855,-0.065433103,-0.067183325,-0.070526609,-0.075205498,-0.080768661,-0.08661103,-0.092053284,-0.096451228,-0.099313396,-0.100398055,-0.099762103,-0.09774483,-0.094886493,-0.09180011,-0.089028736,-0.086925203,-0.085585169,-0.084849151,-0.084369818,-0.083723268,-0.082532552,-0.080570949,-0.077821001,-0.074479354,-0.070912335,-0.067578133,-0.064936043,-0.063361413,-0.063079003,-0.064120756,-0.066309237,-0.069266475,-0.072448601,-0.07520742,-0.076878317,-0.07688849,-0.074871324,-0.070764638,-0.064866488,-0.057825574,-0.050555183,-0.04407798,-0.039329108,-0.036960501,-0.037194485,-0.039766557,-0.043977008,-0.048843678,-0.053321498,-0.056536353,-0.057976683,-0.057597489,-0.055814564,-0.053395073,-0.051275752,-0.050355193,-0.051308494,-0.054461801,-0.059745558,-0.066724844,-0.074689225,-0.082776457,-0.090104639,-0.095893528,-0.099563564,-0.100807278,-0.099630169,-0.096357584,-0.091602954,-0.086193937,-0.081058336,-0.077080966,-0.07495303,-0.075043248,-0.07732085,-0.081352811,-0.08638215,-0.091474686,-0.095703869,-0.098332791,-0.098952595,-0.097547602,-0.094476203,-0.090377427,-0.086029969,-0.08219881,-0.079502722,-0.078325726,-0.078781089,-0.080722868,-0.083791314,-0.08747641,-0.091187354,-0.094321863,-0.096334136,-0.096801536,-0.095487143,-0.092389993,-0.087770341,-0.082136983,-0.076189017,-0.07071491,-0.066464102,-0.064016337,-0.063677556,-0.065426484,-0.068923982,-0.07358142,-0.07866975,-0.08344232,-0.087244286,-0.08958926,-0.090196334,-0.088992969,-0.086097076,-0.081792359,-0.076505355,-0.070783532,-0.065265971,-0.060635518,-0.057545603,-0.056525201,-0.057877604,-0.06159787,-0.067335522,-0.074421422,-0.081962287,-0.088987592,-0.094617707,-0.098214634,-0.099480296,-0.098481349,-0.095599309,-0.091424311,-0.086623807,-0.081820374,-0.077505342,-0.074000559,-0.071464623,-0.069927879,-0.069335884,-0.069584418,-0.070538045,-0.072034358,-0.073883161,-0.075871251,-0.077779164,-0.079408554,-0.08061169,-0.081311205,-0.08150062,-0.081223472,-0.080538177,-0.079483023,-0.078057551,-0.076231623,-0.073983125,-0.071353102,-0.068497943,-0.065715778,-0.06343019,-0.062127008,-0.062255355,-0.064116922,-0.067773208,-0.072997053
-0.08061169,-0.081311205,-0.08150062,-0.081223472,-0.080538177,-0.079483023,-0.078057551,-0.076231623,-0.073983125,-0.071353102,-0.068497943,-0.065715778,-0.06343019,-0.062127008,-0.062255355,-0.064116922,-0.067773208,-0.072997053,-0.079283341,-0.085917923,-0.092088971,-0.097015387,-0.10006536,-0.100843969,-0.099239174,-0.095426358,-0.089839163,-0.083116848,-0.07603642,-0.069433799,-0.064115576,-0.060763676,-0.059839908,-0.061503872,-0.065562687,-0.071470897,-0.078391992,-0.085319785,-0.091242033,-0.095315049,-0.097011668,-0.096208624,-0.093192995,-0.088587113,-0.083211634,-0.077920949,-0.073449793,-0.070303453,-0.068709205,-0.068628457,-0.069813711,-0.071886295,-0.074411755,-0.076958075,-0.079133497,-0.080610478,-0.081146575,-0.080610263,-0.079011839,-0.076530382,-0.073521885,-0.070494313,-0.068043112,-0.0667531,-0.067085342,-0.069275581,-0.073270718,-0.078721179,-0.085032424,-0.09146311,-0.097245742,-0.101701825,-0.104328347,-0.104843672,-0.10319414,-0.099532951,-0.094186816,-0.087622611,-0.080418076,-0.073231672,-0.066761324,-0.061683,-0.058567753,-0.05778726,-0.059428347,-0.063241711,-0.068646287,-0.074798711,-0.08072041,-0.085458507,-0.088246279,-0.088628019,-0.086522157,-0.082212558,-0.076275885,-0.069467229,-0.062592948,-0.056397463,-0.051481613,-0.048258087,-0.046938864,-0.04754404,-0.049921702,-0.053773176,-0.058683836,-0.0641632,-0.069697358,-0.074811841,-0.079136236,-0.082456454,-0.084739808,-0.086123041,-0.086863371,-0.087263944,-0.087593832,-0.088025258,-0.08860559,-0.08927039,-0.089890052,-0.090331379,-0.090510834,-0.090420122,-0.090115777,-0.089678651,-0.089161302,-0.088546593,-0.087737283,-0.086584969,-0.084951652,-0.082783899,-0.080173072,-0.077377959,-0.07479752,-0.072897388,-0.072108739,-0.072726967,-0.074837397,-0.078286604,-0.082704057,-0.087565045,-0.092276818,-0.096268219,-0.099068288,-0.100368296,-0.100069664,-0.098323447,-0.095563713,-0.092528621,-0.090253463,-0.090014365,-0.093204084,-0.101133767,-0.114774504,-0.134474663,-0.159706498,-0.188902209,-0.219432093,-0.247756333,-0.269751604,-0.281181008,-0.278248069,-0.258158301,-0.219607795,-0.163126788,-0.091224338,-0.008304121,0.079652611,0.165614858,0.242193921,0.302430786,0.340591765,0.352873958,0.337921705,0.297069334,0.234255882,0.155602172,0.068693323,-0.01833925,-0.097804259,-0.16335775,-0.210695256,-0.237930918,-0.245621609,-0.236456098,-0.214683976,-0.185395247,-0.153773568,-0.124434218,-0.100928148,-0.085454787,-0.078788275,-0.080391489,-0.088673229,-0.101335953,-0.115761715,-0.129389004,-0.140040278,-0.146168028,-0.146996701,-0.142549563,-0.133563997,-0.121314367,-0.10737582,-0.093371342,-0.080745304,-0.070598277,-0.063602027,-0.059994188,-0.059634933,-0.06209758,-0.0667644,-0.072907048,-0.079744516,-0.086484784,-0.092364313,-0.096699252,-0.098954041,-0.098820361,-0.096287645,-0.09168052,-0.085641916,-0.079052607,-0.072895255,-0.068087859,-0.06532216,-0.064943291,-0.066897357,-0.070756559,-0.075812423,-0.081212361,-0.086107504,-0.089781897,-0.091742808,-0.091764994,-0.089893454,-0.086415832,-0.081816206,-0.076717831,-0.071817096,-0.067807769,-0.065295979,-0.064711914,-0.066231462,-0.069726117,-0.074759037,-0.080637709,-0.086520574,-0.091560061,-0.095052743,-0.096563129,-0.095992941,-0.093581391,-0.089839778,-0.08544021,-0.081088069,-0.077408402,-0.074867954,-0.073740755,-0.074111174,-0.075899075,-0.078890123,-0.082759929,-0.0870907,-0.091388311,-0.095112117,-0.097726955,-0.098777581,-0.097973873,-0.095265532,-0.090882222,-0.08532102,-0.079276419,-0.073524703,-0.068788488,-0.065613761,-0.064288287,-0.06481798,-0.066960848,-0.070302281,-0.074345992,-0.078594584,-0.082602119,-0.085994342,-0.088465298,-0.089766868,-0.089707731,-0.08817075,-0.085146296,-0.080768372,-0.075335172,-0.06929816,-0.063213214,-0.057660295,-0.053149638,-0.050038159,-0.048477476,-0.048405432,-0.049579822,-0.051640853,-0.054182186,-0.056811113,-0.059185917,-0.061029325,-0.062126719,-0.062322461,-0.061525719,-0.059729431,-0.057036255,-0.053677739,-0.050011271,-0.046484837,-0.043570535,-0.04168015,-0.041084979,-0.041863719,-0.043895403,-0.046901066,-0.050522544,-0.054414996,-0.058325533,-0.062135465,-0.06585617,-0.069584151,-0.073433905,-0.077473289,-0.081683258,-0.085953446,-0.090111249,-0.093969973,-0.097375692,-0.100234703,-0.102512622,-0.104208555,-0.105318261,-0.105804868,-0.105592518,-0.104588806,-0.102729671,-0.100030439,-0.096622925,-0.092762352,-0.08879803,-0.085114328,-0.082058758,-0.079878204,-0.078680991,-0.078433052,-0.07898474,-0.080115239,-0.081577735,-0.083131491,-0.084555304,-0.085646659,-0.086218018,-0.086103032,-0.085180272,-0.083412482,-0.080889268,-0.07785502,-0.074704606,-0.071937534,-0.070074276,-0.069551853,-0.070624711,-0.073297867,-0.077311583,-0.082182827,-0.087293048,-0.091999506,-0.095742527,-0.098124719,-0.098948703,-0.0982132,-0.096078615,-0.092818945,-0.088775654,-0.084322454,-0.079841273,-0.075702882,-0.072243731,-0.069733991,-0.068339046,-0.06808413,-0.068835926,-0.070313298,-0.072131935,-0.073876915,-0.075186969,-0.075828622,-0.075739798,-0.075030887,-0.073943959,-0.072783352,-0.071839012,-0.071324689,-0.071346496,-0.071905879,-0.072929138,-0.074307619,-0.075931422,-0.077704954,-0.079542445,-0.081351299,-0.083016914,-0.084401856,-0.085365397,-0.085799317,-0.085666908,-0.08502822,-0.084037864,-0.082911107,-0.081866181,-0.081060805,-0.08054474,-0.080245885,-0.079996233,-0.079589927,-0.078853923,-0.077706953,-0.076186532,-0.074435345,-0.072653278,-0.071034009,-0.069710593,-0.068730779,-0.068071001,-0.067682637
-0.080705791,-0.073384795,-0.066046101,-0.059465156,-0.054361339,-0.051334129,-0.050804788,-0.052962052,-0.057716179,-0.06467261,-0.073140173,-0.082186371,-0.090743018,-0.09775172,-0.102324927,-0.103889634,-0.102281107,-0.097764098,-0.09097638,-0.082808866,-0.074251944,-0.066244167,-0.059555185,-0.054721611,-0.052037114,-0.051582499,-0.053272897,-0.056899868,-0.062155063,-0.068635062,-0.075838754,-0.083174385,-0.089991126,-0.095640609,-0.099561176,-0.101366655,-0.1009165,-0.098347322,-0.09405582,-0.088636569,-0.082789932,-0.077221752,-0.072555463,-0.069269992,-0.067666673,-0.067859523,-0.069779174,-0.073182431,-0.077665472,-0.082685548,-0.087599858,-0.091728446,-0.094440498,-0.095252901,-0.093920708,-0.090495543,-0.085332489,-0.079037992,-0.072367375,-0.066095238,-0.060890122,-0.057223296,-0.055330599,-0.055229553,-0.056777258,-0.059743525,-0.063872113,-0.068910971,-0.074606888,-0.080675358,-0.086767039,-0.092453996,-0.09725148,-0.10067712,-0.102334402,-0.101996779,-0.099666545,-0.095589489,-0.090219752,-0.084144305,-0.077987726,-0.072321806,-0.067599988,-0.064126145,-0.062054939,-0.061411773,-0.062117302,-0.064005098,-0.066829215,-0.070267036,-0.073927961,-0.077377837,-0.080182731,-0.081966472,-0.082468383,-0.081584494,-0.079379045,-0.076062313,-0.071942203,-0.067366259,-0.062673699,-0.058172402,-0.054144807,-0.050873631,-0.048668274,-0.047870107,-0.04882119,-0.051794596,-0.056900769,-0.063997236,-0.072633527,-0.082056971,-0.091289698,-0.099267299,-0.105011614,-0.107799738,-0.107291763,-0.103590518,-0.097223947,-0.089059003,-0.08016967,-0.07168743,-0.064659824,-0.059934308,-0.058074521,-0.059308588,-0.063506473,-0.070185471,-0.078547071,-0.08755094,-0.09602951,-0.102838697,-0.107028373,-0.108004589,-0.105649098,-0.100364362,-0.093024958,-0.084836703,-0.077127501,-0.071112228,-0.067682292,-0.067265877,-0.069788566,-0.074740332,-0.081330534,-0.088693754,-0.096100457,-0.103128584,-0.109763168,-0.116406923,-0.123800915,-0.132867727,-0.144498672,-0.159312364,-0.177415737,-0.198201812,-0.220220684,-0.241159576,-0.257961353,-0.267096165,-0.264977503,-0.248484548,-0.215523033,-0.16553466,-0.099857675,-0.021853324,0.063255243,0.148838334,0.227563446,0.292254092,0.336778528,0.356833627,0.350503935,0.318511642,0.264122523,0.192726078,0.111155866,0.026850987,-0.053022478,-0.122371361,-0.176794384,-0.213947171,-0.233617823,-0.237518637,-0.228839115,-0.211638437,-0.190177233,-0.168294894,-0.148927731,-0.133835673,-0.123565247,-0.117631439,-0.114860037,-0.113804087,-0.113139538,-0.111957968,-0.109904892,-0.107152817,-0.104238366,-0.101822482,-0.100445141,-0.100339288,-0.101346337,-0.102944967,-0.104375181,-0.104818272,-0.103585064,-0.100269477,-0.094838625,-0.087648563,-0.079391038,-0.070987385,-0.063450363,-0.057734519,-0.054593418,-0.054459944,-0.057364783,-0.062907117,-0.07028849,-0.078413801,-0.086052119,-0.092036123,-0.095466326,-0.095879302,-0.093341533,-0.088443367,-0.082188757,-0.075800701,-0.070483062,-0.067190496,-0.066456268,-0.068313087,-0.072318951,-0.077674989,-0.083402349,-0.088535287,-0.092289571,-0.094176948,-0.094053181,-0.092103399,-0.08877975,-0.084710621,-0.080598889,-0.077121619,-0.074838844,-0.074116914,-0.075072699,-0.077547153,-0.08111736,-0.085153005,-0.088915368,-0.091686041,-0.092902156,-0.092269041,-0.089823086,-0.085927707,-0.081201488,-0.076395024,-0.072246317,-0.069349269,-0.068064433,-0.06848744,-0.070473218,-0.073699025,-0.077741461,-0.08214407,-0.086461608,-0.090280255,-0.093224498,-0.094966499,-0.095250553,-0.093935329,-0.09104413,-0.086803968,-0.081652145,-0.076195861,-0.071124297,-0.067088876,-0.064580021,-0.06383294,-0.064788648,-0.067121356,-0.070324307,-0.073829393,-0.077127004,-0.079854346,-0.081831982,-0.083045586,-0.083586714,-0.08357745,-0.083105592,-0.082189957,-0.0807825,-0.078800382,-0.076171847,-0.072877512,-0.068973586,-0.064592737,-0.059927588,-0.05520732,-0.050677576,-0.046588496,-0.043188255,-0.040713853,-0.039370173,-0.039293418,-0.040504077,-0.042863741,-0.046054947,-0.049600852,-0.052931506,-0.055488763,-0.056847248,-0.056819974,-0.055517692,-0.053341836,-0.050908834,-0.048923131,-0.048031142,-0.048693506,-0.051106798,-0.05519044,-0.060635008,-0.066991196,-0.073769521,-0.080522197,-0.086889023,-0.092604349,-0.097476359,-0.101358044,-0.104128746,-0.105697209,-0.1060251,-0.105159343,-0.103256334,-0.100583271,-0.097490271,-0.094358063,-0.091535414,-0.089284216,-0.087747191,-0.086944631,-0.086796193,-0.087155673,-0.087844113,-0.08867038,-0.089436735,-0.089936028,-0.089952896,-0.08928087,-0.087760373,-0.085331768,-0.082087349,-0.078301053,-0.074417507,-0.070992753,-0.068594249,-0.067682312,-0.068503609,-0.071026238,-0.074935224,-0.079690258,-0.084629884,-0.089093934,-0.092532906,-0.094579789,-0.095073851,-0.094041749,-0.091653346,-0.088173833,-0.083929105,-0.079290457,-0.07467225,-0.070527588,-0.067325878,-0.065503072,-0.065387784,-0.067119475,-0.070583151,-0.075385051,-0.080884773,-0.086284124,-0.090756513,-0.093588589,-0.094302016,-0.092728933,-0.089027588,-0.083640463,-0.077210586,-0.070478873,-0.064184734,-0.058985303,-0.055399123,-0.053771857,-0.054257713,-0.056811347,-0.061189493,-0.066966331,-0.073568608,-0.080333913,-0.08658899,-0.091736915,-0.095336019,-0.097152603,-0.097174879,-0.095585954,-0.092705468,-0.088918522,-0.084613192,-0.080142998,-0.075819819,-0.071929834,-0.068755178,-0.066581076,-0.065673849,-0.066227654,-0.068292648,-0.071708925,-0.076074145,-0.08076633,-0.085028167,-0.088100127,-0.089372966,-0.088521546,-0.085584517,-0.080967713,-0.075369076
-0.078268923,-0.081236826,-0.083866039,-0.086113447,-0.088029017,-0.089688234,-0.091121191,-0.092265153,-0.092958924,-0.092982295,-0.092127603,-0.090278729,-0.08746989,-0.083903393,-0.079919505,-0.075927843,-0.072322244,-0.069405724,-0.067347321,-0.06618054,-0.065838241,-0.066206841,-0.067177689,-0.068677048,-0.07066642,-0.073117727,-0.075977957,-0.079141531,-0.082444466,-0.08568446,-0.088659327,-0.091207795,-0.093234933,-0.094710346,-0.095638461,-0.096012392,-0.095770989,-0.09477941,-0.092846223,-0.089777073,-0.085451189,-0.079897396,-0.073344583,-0.066228466,-0.059149513,-0.052791448,-0.047820716,-0.044791018,-0.044072685,-0.045816487,-0.049949794,-0.056194426,-0.064093225,-0.073036642,-0.082289096,-0.091023082,-0.098372849,-0.103516249,-0.105783533,-0.104778712,-0.100487595,-0.093341729,-0.0842121,-0.074320316,-0.065074544,-0.057856907,-0.053802631,-0.053614524,-0.057448767,-0.064891645,-0.075027014,-0.086576494,-0.098083151,-0.108106617,-0.115402113,-0.119064398,-0.118626415,-0.114108464,-0.106016302,-0.095287091,-0.083183199,-0.071138105,-0.06056666,-0.05266246,-0.04821425,-0.047476939,-0.050127741,-0.055323461,-0.061853797,-0.06836313,-0.073596127,-0.076616006,-0.076950869,-0.074641504,-0.070188254,-0.064418064,-0.058308847,-0.052813128,-0.048716074,-0.046548148,-0.046555215,-0.048714836,-0.052780527,-0.05833674,-0.064853973,-0.071741627,-0.078401776,-0.084287379,-0.088963821,-0.092165608,-0.093834552,-0.094125344,-0.093370428,-0.092007188,-0.090482742,-0.089160385,-0.088253029,-0.087801712,-0.087703291,-0.087775632,-0.087836404,-0.087767699,-0.087544541,-0.087219193,-0.086869922,-0.086536671,-0.08617162,-0.085627852,-0.08469572,-0.083178775,-0.080985552,-0.078205601,-0.075140914,-0.072276358,-0.070190996,-0.069430133,-0.070370019,-0.073109757,-0.077417914,-0.082747373,-0.088315848,-0.093235932,-0.096670826,-0.097990625,-0.096907611,-0.093574398,-0.088633276,-0.08320749,-0.078826225,-0.077277253,-0.080387101,-0.089739903,-0.106361697,-0.130413522,-0.160948915,-0.195793987,-0.23159789,-0.264077938,-0.288450838,-0.300006,-0.294746734,-0.270007116,-0.224950409,-0.160869314,-0.081235567,0.008519088,0.101472977,0.189886555,0.266003074,0.322888812,0.355216858,0.359900434,0.336492993,0.287293848,0.21712988,0.132824484,0.042409783,-0.045819751,-0.124283587,-0.186981659,-0.230124802,-0.252439939,-0.255115619,-0.24141468,-0.216035602,-0.184340932,-0.151583008,-0.122243491,-0.099569317,-0.085343415,-0.079884831,-0.082238893,-0.090498616,-0.102194034,-0.114692552,-0.1255655,-0.132888413,-0.135452631,-0.132873256,-0.125585537,-0.114730788,-0.10194533,-0.089080736,-0.077897503,-0.06978272,-0.065541264,-0.065297966,-0.068526581,-0.074195108,-0.080992697,-0.087587407,-0.092860657,-0.09607387,-0.096942272,-0.095614292,-0.092575838,-0.088511738,-0.084159543,-0.08018456,-0.077093221,-0.075189148,-0.074566611,-0.075131492,-0.076639959,-0.078747746,-0.081065609,-0.083217201,-0.084894106,-0.085900229,-0.086176503,-0.085798687,-0.084946528,-0.083850459,-0.08272952,-0.081738224,-0.080938445,-0.08030479,-0.079760616,-0.079230623,-0.078689186,-0.078184163,-0.077824313,-0.077732067,-0.077977549,-0.078519055,-0.079175841,-0.079650069,-0.079598692,-0.07873824,-0.076952019,-0.07436522,-0.071360583,-0.068523787,-0.066528275,-0.065987409,-0.067311665,-0.070607217,-0.07564028,-0.08187335,-0.088560677,-0.094877031,-0.100049233,-0.103464525,-0.10474066,-0.103754998,-0.100639315,-0.095750828,-0.089628108,-0.082935589,-0.07639611,-0.070710334,-0.06646613,-0.064048602,-0.063568652,-0.064830894,-0.067357376,-0.070471883,-0.073433441,-0.075592055,-0.076530229,-0.076154297,-0.074710755,-0.072721851,-0.07085595,-0.069765359,-0.069932027,-0.071557795,-0.074522207,-0.078411887,-0.082607296,-0.086400581,-0.089115173,-0.090203429,-0.0893097,-0.086298095,-0.081252611,-0.074459904,-0.066382168,-0.057621973,-0.048876112,-0.040874461,-0.034303537,-0.029721511,-0.027478652,-0.02766107,-0.030073581,-0.034269531,-0.039623616,-0.045432269,-0.051019092,-0.055822783,-0.059452198,-0.061704743,-0.062555956,-0.062135331,-0.060703423,-0.058638279,-0.05642832,-0.05465892,-0.05397588,-0.055013518,-0.058287496,-0.064068808,-0.072269461,-0.08237633,-0.093463914,-0.104299622,-0.113531171,-0.119921909,-0.122583797,-0.121154928,-0.11587998,-0.10757488,-0.097484465,-0.087066198,-0.077747528,-0.070706008,-0.066710773,-0.066045856,-0.068516129,-0.07352099,-0.080172605,-0.08743463,-0.09426178,-0.099726677,-0.103125134,-0.104053037,-0.102447959,-0.098588712,-0.093048589,-0.086604141,-0.080110423,-0.074362839,-0.069971779,-0.067275908,-0.066312354,-0.066848516,-0.068464676,-0.070663796,-0.072979148,-0.075053578,-0.076675243,-0.077769639,-0.078361507,-0.07852785,-0.078362484,-0.077963789,-0.07744454,-0.076950912,-0.076672098,-0.076824798,-0.077607402,-0.079133043,-0.081363007,-0.084067207,-0.086833563,-0.089134268,-0.090438352,-0.090343041,-0.088687337,-0.085613531,-0.081555804,-0.077155584,-0.073124321,-0.07008917,-0.068461193,-0.068358102,-0.069597266,-0.071755205,-0.074273247,-0.076580116,-0.078202555,-0.078843089,-0.0784159,-0.077042841,-0.075018719,-0.072756835,-0.070723815,-0.069369641,-0.0690572,-0.069996974,-0.072195937,-0.075432934,-0.07927272,-0.083125515,-0.086348516,-0.088372843,-0.088828467,-0.087635127,-0.085032108,-0.081533788,-0.077817567,-0.07457035,-0.07233275,-0.071382098,-0.071685066,-0.072931103,-0.074634897,-0.076276913,-0.077441514,-0.077915046,-0.077720088,-0.077082092,-0.076344243,-0.075859507,-0.075891961,-0.076552657
-0.076552657,-0.077781779,-0.0793739,-0.081031846,-0.082430221,-0.083272328,-0.083331629,-0.082477121,-0.080687359,-0.07805836,-0.074806832,-0.071264637,-0.0678567,-0.06505543,-0.063310916,-0.06296574,-0.064172633,-0.066838088,-0.070612457,-0.074936872,-0.079141953,-0.082577753,-0.084743892,-0.085387375,-0.084543877,-0.082514034,-0.079784229,-0.076915802,-0.07443294,-0.072736086,-0.07205644,-0.072452485,-0.073836941,-0.076016338,-0.078727205,-0.081660818,-0.084478722,-0.086828768,-0.088372928,-0.088832707,-0.088047816,-0.086033364,-0.083014851,-0.079421936,-0.075831728,-0.072867252,-0.071071854,-0.070790137,-0.072086877,-0.074726367,-0.078218606,-0.081920569,-0.085166467,-0.087394643,-0.088242207,-0.087589928,-0.085554932,-0.082442334,-0.078674859,-0.074720097,-0.071029448,-0.067994248,-0.065917036,-0.064992289,-0.065292143,-0.066757098,-0.069196532,-0.072305901,-0.075705124,-0.078996166,-0.081829851,-0.083965947,-0.08530962,-0.085912683,-0.085938341,-0.085599854,-0.085092419,-0.084539976,-0.083973461,-0.083345681,-0.082574618,-0.081596506,-0.080406452,-0.079069314,-0.07769533,-0.076389287,-0.075193482,-0.074048781,-0.072792888,-0.071202125,-0.069066912,-0.066277783,-0.062892958,-0.059162735,-0.055498998,-0.052395547,-0.050320837,-0.049613496,-0.050409886,-0.052622359,-0.055970795,-0.060053985,-0.064436974,-0.068728749,-0.072631614,-0.075955959,-0.078606984,-0.080558346,-0.081828911,-0.082472994,-0.08258464,-0.082307313,-0.081835815,-0.081399589,-0.081224788,-0.081483229,-0.082244856,-0.08345268,-0.084933667,-0.086447282,-0.087759372,-0.088718196,-0.08930605,-0.089645937,-0.089956705,-0.090467438,-0.091316847,-0.092470629,-0.093686489,-0.094543362,-0.094532487,-0.093189093,-0.090230682,-0.085664893,-0.079837511,-0.073406533,-0.067246614,-0.062304244,-0.059433815,-0.059246655,-0.062000234,-0.067545741,-0.075342026,-0.084534741,-0.094091853,-0.10298009,-0.110360164,-0.115771878,-0.119274632,-0.121507281,-0.123636919,-0.12718106,-0.133711409,-0.144476192,-0.160005188,-0.179779323,-0.202048048,-0.22385951,-0.241332397,-0.250151084,-0.246217748,-0.226357735,-0.188956559,-0.13441312,-0.065322339,0.013654775,0.096224503,0.175140522,0.243038125,0.293310106,0.320908972,0.322972151,0.299190436,0.251871444,0.185686324,0.107126468,0.023734357,-0.056795164,-0.127524957,-0.183072136,-0.220178485,-0.237973825,-0.23789896,-0.223310309,-0.198841318,-0.169635032,-0.140579372,-0.115667978,-0.097577295,-0.087502844,-0.085245728,-0.089496076,-0.098232474,-0.109149463,-0.120037483,-0.129064998,-0.134942504,-0.136974688,-0.135024522,-0.129420018,-0.120832318,-0.110146806,-0.098341054,-0.086377735,-0.075117881,-0.065259005,-0.057301683,-0.051545507,-0.048110549,-0.0469749,-0.048014818,-0.051033852,-0.055772091,-0.061895469,-0.068974993,-0.076472974,-0.083754515,-0.090136193,-0.094971587,-0.097758785,-0.098243576,-0.096488184,-0.09288135,-0.08808011,-0.082892554,-0.078128016,-0.074450973,-0.072273943,-0.071713275,-0.072613433,-0.074626349,-0.077318548,-0.080274241,-0.083168158,-0.085794901,-0.088057033,-0.089926583,-0.091400113,-0.092465054,-0.093086502,-0.09321321,-0.092793571,-0.091789917,-0.090183107,-0.087966833,-0.085138725,-0.081699197,-0.077666966,-0.073112691,-0.068202155,-0.063232113,-0.058639444,-0.054969288,-0.052799642,-0.05263452,-0.054790246,-0.059304967,-0.065897707,-0.073990933,-0.082793547,-0.091424915,-0.09905027,-0.104996676,-0.108826728,-0.110361097,-0.109655916,-0.106951827,-0.102615058,-0.097086872,-0.090848572,-0.084399241,-0.078236752,-0.072831796,-0.068589788,-0.065803893,-0.064610252,-0.064960104,-0.066621048,-0.069211907,-0.072265326,-0.075303474,-0.077908365,-0.079770936,-0.080711,-0.080670405,-0.079690143,-0.077885398,-0.07542954,-0.072550188,-0.069531229,-0.066708242,-0.0644443,-0.063079443,-0.062858234,-0.063851628,-0.065897104,-0.068581036,-0.071278639,-0.073251635,-0.07378673,-0.072344643,-0.068684315,-0.062931946,-0.055578237,-0.047405219,-0.039360936,-0.032410806,-0.027396342,-0.024925472,-0.025307227,-0.028531631,-0.034287265,-0.042006124,-0.050927472,-0.060176543,-0.068856743,-0.076152854,-0.081437484,-0.084365734,-0.084937641,-0.083508208,-0.080732627,-0.077448863,-0.074517029,-0.072649479,-0.072271879,-0.073450463,-0.075904936,-0.079103978,-0.082417839,-0.085286829,-0.087360624,-0.088572402,-0.089131075,-0.089438247,-0.089956991,-0.091071012,-0.092972558,-0.095606363,-0.098679282,-0.101727016,-0.104215784,-0.105651465,-0.105671738,-0.104105641,-0.100995797,-0.096587364,-0.091292244,-0.085637261,-0.080202493,-0.075553564,-0.072171432,-0.070385587,-0.070320338,-0.071866389,-0.074688722,-0.078275771,-0.082024819,-0.085347693,-0.087772968,-0.089019661,-0.089024096,-0.087914747,-0.085945435,-0.083409923,-0.080566173,-0.077594131,-0.074598172,-0.071648577,-0.068841597,-0.066350127,-0.06443972,-0.06343686,-0.063653891,-0.065291642,-0.06835067,-0.072581574,-0.077494078,-0.08242721,-0.086664708,-0.089566933,-0.090686826,-0.089843739,-0.087142332,-0.08293934,-0.077773425,-0.072278962,-0.067102598,-0.062833909,-0.059952607,-0.058788497,-0.05948945,-0.061996726,-0.066033504,-0.071117361,-0.076607172,-0.081788133,-0.085986728,-0.088694692,-0.089672454,-0.089002362,-0.087071866,-0.084484523,-0.081917172,-0.079958318,-0.078969871,-0.079009157,-0.079831718,-0.080972747,-0.081883105,-0.082081403,-0.08128091,-0.079459352,-0.076857515,-0.073912958,-0.07115169,-0.069068744,-0.068026904,-0.068193266,-0.069520232,-0.071765711,-0.074540327,-0.07736843,-0.079753145,-0.081240606,-0.081481659,-0.080288844
-0.079958318,-0.078969871,-0.079009157,-0.079831718,-0.080972747,-0.081883105,-0.082081403,-0.08128091,-0.079459352,-0.076857515,-0.073912958,-0.07115169,-0.069068744,-0.068026904,-0.068193266,-0.069520232,-0.071765711,-0.074540327,-0.07736843,-0.079753145,-0.081240606,-0.081481659,-0.080288844,-0.077682862,-0.073918173,-0.06947532,-0.065010421,-0.061260839,-0.058918329,-0.058493094,-0.06019955,-0.063893854,-0.069083225,-0.075010269,-0.080796295,-0.08561197,-0.088836297,-0.090168082,-0.089666813,-0.087718104,-0.084937068,-0.082035964,-0.079687105,-0.078408087,-0.078486581,-0.079950203,-0.082577463,-0.085940688,-0.089471337,-0.092540122,-0.094546199,-0.095009157,-0.09365416,-0.090476281,-0.085767493,-0.080092275,-0.074206354,-0.068926803,-0.064976578,-0.062837631,-0.062649328,-0.064180715,-0.066887618,-0.070043162,-0.072909857,-0.074909341,-0.075746278,-0.075455975,-0.074366945,-0.072993376,-0.07189081,-0.071516013,-0.072127166,-0.073745489,-0.076179654,-0.079096472,-0.082110879,-0.084867617,-0.087095166,-0.088625468,-0.089385477,-0.089374237,-0.088639887,-0.087265664,-0.085365736,-0.083084668,-0.080591615,-0.078062985,-0.075653958,-0.073466495,-0.071525988,-0.069777869,-0.068109409,-0.066392623,-0.064535464,-0.062524039,-0.060440404,-0.058448526,-0.056752217,-0.05553929,-0.054931668,-0.054959502,-0.055568827,-0.056659892,-0.058141518,-0.059980153,-0.062223255,-0.064985257,-0.068397643,-0.072537988,-0.07736139,-0.082658413,-0.088056195,-0.093066178,-0.09716765,-0.099905626,-0.100978033,-0.100291396,-0.097974351,-0.094350441,-0.089881503,-0.085097676,-0.080528837,-0.076646826,-0.073821251,-0.072287139,-0.072122062,-0.073233308,-0.075360046,-0.078098052,-0.08095301,-0.083421715,-0.085090537,-0.085730692,-0.085364498,-0.084279187,-0.082975672,-0.082056809,-0.082078137,-0.083397995,-0.0860683,-0.089799851,-0.094018193,-0.098002699,-0.10107902,-0.102820043,-0.103206797,-0.102709202,-0.102264189,-0.103150288,-0.106777798,-0.11442766,-0.126978441,-0.144660383,-0.166870596,-0.192077135,-0.217833314,-0.240916802,-0.257599019,-0.264036812,-0.256759546,-0.233202314,-0.192214469,-0.134458789,-0.062616548,0.018668132,0.103135406,0.183530617,0.252429658,0.303155954,0.330651198,0.332161969,0.30763023,0.259722652,0.193492292,0.115724848,0.034069731,-0.043914397,-0.111662696,-0.164332948,-0.199268391,-0.216144858,-0.2167986,-0.204775198,-0.184676737,-0.161409974,-0.139449454,-0.122224723,-0.111719699,-0.108336956,-0.111034994,-0.11769964,-0.125670285,-0.132316045,-0.135551875,-0.134201718,-0.128151336,-0.118279431,-0.106201406,-0.0938952,-0.083295615,-0.075939994,-0.072726808,-0.073816933,-0.078674139,-0.086214901,-0.095023209,-0.103584544,-0.110501688,-0.114668289,-0.115388846,-0.112442434,-0.106091272,-0.097036024,-0.086320504,-0.075191924,-0.06492969,-0.056664388,-0.051215584,-0.048978485,-0.049883151,-0.053435948,-0.058834578,-0.065130597,-0.071402242,-0.076899363,-0.081131852,-0.083890126,-0.085205497,-0.085273446,-0.084369346,-0.082782472,-0.08078238,-0.078616612,-0.076526048,-0.074758496,-0.07356399,-0.073165181,-0.073708791,-0.07521437,-0.07754041,-0.08038383,-0.083318537,-0.085866173,-0.087581908,-0.088133954,-0.087358437,-0.085279906,-0.082098406,-0.078152618,-0.073872094,-0.069729506,-0.066197825,-0.063710982,-0.062623162,-0.063163578,-0.065389627,-0.06914908,-0.074067204,-0.079574005,-0.084978766,-0.089585426,-0.092827364,-0.094389414,-0.094283017,-0.092849279,-0.090682662,-0.088489954,-0.08691834,-0.086396566,-0.087030813,-0.088582439,-0.090532471,-0.092214428,-0.0929796,-0.092352276,-0.090137771,-0.086461119,-0.081733634,-0.076562173,-0.071627144,-0.067557842,-0.064828688,-0.063690512,-0.064141284,-0.065933714,-0.06861408,-0.071586556,-0.074197797,-0.075835445,-0.076030609,-0.074549195,-0.071453094,-0.067112494,-0.062157294,-0.0573682,-0.053523912,-0.051234993,-0.050802563,-0.052137569,-0.054763575,-0.057906053,-0.060649459,-0.062126483,-0.061696638,-0.059075752,-0.05439208,-0.048163956,-0.041211936,-0.034530221,-0.029145056,-0.025982676,-0.025759784,-0.028900246,-0.035476733,-0.0451768,-0.057298062,-0.070782605,-0.084302258,-0.096400649,-0.105685033,-0.111043997,-0.111852102,-0.108115533,-0.10051808,-0.090344813,-0.07928775,-0.069166407,-0.061618204,-0.057822453,-0.058314345,-0.062923988,-0.070846148,-0.080817305,-0.091355621,-0.101011256,-0.108579786,-0.113246908,-0.114652378,-0.11287903,-0.108384492,-0.101897432,-0.094298163,-0.086498549,-0.079331579,-0.073458746,-0.069303361,-0.067018374,-0.06649562,-0.067418076,-0.069347861,-0.071832725,-0.074506348,-0.077156458,-0.07974154,-0.082350639,-0.085117943,-0.088118786,-0.09128137,-0.094345464,-0.096886102,-0.098400355,-0.098435086,-0.096719553,-0.093263567,-0.088390904,-0.082695889,-0.076932922,-0.071867252,-0.068125006,-0.066078748,-0.065793032,-0.067036841,-0.069352444,-0.072158235,-0.074859374,-0.07694421,-0.078053546,-0.078019454,-0.076877017,-0.074854239,-0.072343341,-0.069853349,-0.067942643,-0.067132893,-0.067812523,-0.070145985,-0.07401068,-0.078982817,-0.08438514,-0.089394618,-0.09319121,-0.095115189,-0.094795523,-0.092217749,-0.087715453,-0.08189019,-0.075483781,-0.069238219,-0.06377862,-0.059543885,-0.056772458,-0.055532748,-0.055775709,-0.057384396,-0.060202165,-0.064034167,-0.068630505,-0.073668352,-0.078751249,-0.083436655,-0.087290657,-0.089956706,-0.091218052,-0.091034245,-0.089540197,-0.087008875,-0.083790666,-0.080249263,-0.076713019,-0.073452601,-0.070683888,-0.068584237,-0.06730513,-0.066966861,-0.067630606,-0.069255921
-0.077362694,-0.079698987,-0.081083804,-0.081248138,-0.080177347,-0.078135313,-0.075617973,-0.073244008,-0.071609719,-0.071146454,-0.072018657,-0.074088802,-0.076956082,-0.080055065,-0.082785234,-0.084636611,-0.085281725,-0.084617162,-0.082754016,-0.079970032,-0.076643284,-0.073186531,-0.069994703,-0.067409047,-0.065694256,-0.065022228,-0.065458308,-0.066950981,-0.069330879,-0.072326494,-0.0756008,-0.078805976,-0.081645398,-0.083926774,-0.085590401,-0.08670285,-0.08741703,-0.08791074,-0.088323275,-0.088710345,-0.089030985,-0.089168587,-0.08897596,-0.08832613,-0.087149582,-0.08544526,-0.083264277,-0.080677272,-0.077743791,-0.074501681,-0.070986053,-0.067273981,-0.063537761,-0.060081954,-0.057340875,-0.055824243,-0.056015857,-0.058247845,-0.062584751,-0.068753134,-0.076142305,-0.083883058,-0.090989751,-0.096533496,-0.099806133,-0.100438271,-0.098448446,-0.094219388,-0.088415309,-0.081865593,-0.075442511,-0.069954429,-0.066065085,-0.064238829,-0.064705513,-0.067438778,-0.072146706,-0.078280628,-0.085072102,-0.091606493,-0.096933685,-0.100204447,-0.100809408,-0.098491085,-0.093401366,-0.086087493,-0.07740623,-0.068383412,-0.060049058,-0.053282676,-0.048698342,-0.046586631,-0.046915063,-0.049375344,-0.053458305,-0.058537146,-0.063945196,-0.069042258,-0.073270109,-0.07620016,-0.077574261,-0.077334938,-0.075637131,-0.072832763,-0.069423546,-0.065985661,-0.063079241,-0.061162233,-0.060528998,-0.061287824,-0.063379907,-0.066629344,-0.07080388,-0.075663597,-0.080980698,-0.086526171,-0.09203387,-0.097163807,-0.101489512,-0.104527492,-0.105811957,-0.105000139,-0.101979199,-0.096940338,-0.09039192,-0.083099648,-0.075963052,-0.069856831,-0.065476547,-0.06322715,-0.063180204,-0.065105609,-0.068562647,-0.073019862,-0.077968162,-0.08299745,-0.087821566,-0.092254003,-0.096152143,-0.099356115,-0.101648137,-0.10275039,-0.102367441,-0.100266841,-0.096381996,-0.090916238,-0.084425963,-0.077862463,-0.072555363,-0.070125003,-0.072317351,-0.080764496,-0.096687243,-0.12057297,-0.151878607,-0.188820384,-0.228313265,-0.266109814,-0.297159775,-0.316171787,-0.318315042,-0.299961591,-0.259349037,-0.197045144,-0.116121656,-0.021989828,0.078094381,0.175793254,0.262613848,0.330870408,0.374553626,0.389995996,0.376254995,0.335175557,0.271133959,0.190502109,0.100901403,0.010337328,-0.073681348,-0.144932859,-0.199086075,-0.234043795,-0.249986113,-0.249116648,-0.235158995,-0.212689553,-0.186417935,-0.160531371,-0.138202892,-0.121327481,-0.110503522,-0.105229212,-0.104245757,-0.105939375,-0.108715349,-0.111277565,-0.112779024,-0.11284352,-0.111487002,-0.108983024,-0.10571835,-0.102074521,-0.098354539,-0.094756762,-0.091385617,-0.088283144,-0.085466035,-0.082957282,-0.080806688,-0.079098013,-0.077942021,-0.07745514,-0.077724569,-0.078763848,-0.080467794,-0.082580648,-0.084693347,-0.086282683,-0.086795877,-0.085770422,-0.082964929,-0.078467078,-0.072744049,-0.066610768,-0.06111048,-0.057325562,-0.056157374,-0.058125618,-0.06323615,-0.070951058,-0.080270219,-0.089906316,-0.098513149,-0.104916196,-0.108297129,-0.108298873,-0.105039519,-0.099045332,-0.091129071,-0.082246334,-0.07335958,-0.065329709,-0.05884315,-0.054372641,-0.052164854,-0.052247811,-0.054453727,-0.058455633,-0.063816481,-0.070046827,-0.076662905,-0.083233598,-0.089405135,-0.094897617,-0.099476768,-0.102914445,-0.104958391,-0.105331745,-0.103774673,-0.100125718,-0.09442379,-0.08699877,-0.078515034,-0.069940067,-0.062428756,-0.05713766,-0.05500572,-0.056551211,-0.061734872,-0.069925508,-0.079980641,-0.090427714,-0.099708449,-0.106436197,-0.109616169,-0.10879006,-0.10408547,-0.096170841,-0.086133199,-0.075305638,-0.065073906,-0.056688502,-0.051103292,-0.048856486,-0.050005787,-0.054126149,-0.060374103,-0.067615425,-0.07460277,-0.080178436,-0.083468005,-0.084027128,-0.081909065,-0.077635041,-0.072070523,-0.066232676,-0.061071458,-0.057273753,-0.055134228,-0.054519781,-0.054931126,-0.055642,-0.055879812,-0.055005316,-0.052653662,-0.048812136,-0.043826426,-0.038342238,-0.033199128,-0.029297341,-0.02745762,-0.028290821,-0.03209141,-0.038767493,-0.047819414,-0.058377056,-0.069300572,-0.079339291,-0.087330152,-0.092403509,-0.094155271,-0.092744253,-0.088884706,-0.0837249,-0.078628929,-0.074903638,-0.073528612,-0.074949404,-0.078981289,-0.084845864,-0.091332289,-0.09704698,-0.100697196,-0.101349344,-0.098611979,-0.092712741,-0.084461916,-0.075116872,-0.066176857,-0.059144758,-0.055292375,-0.055460901,-0.059921447,-0.06831324,-0.079669732,-0.092534359,-0.105157039,-0.115749628,-0.122765394,-0.125157378,-0.122567514,-0.115405513,-0.104794393,-0.092385346,-0.080072794,-0.069663612,-0.062566246,-0.059561868,-0.060701318,-0.065342915,-0.072314793,-0.080159582,-0.087405306,-0.09280719,-0.095518952,-0.095173928,-0.091878992,-0.086141346,-0.078756099,-0.07068088,-0.062915583,-0.056395489,-0.051898858,-0.049968328,-0.050848488,-0.054447352,-0.060333011,-0.067775475,-0.075836608,-0.083499739,-0.089818884,-0.094059907,-0.095805583,-0.095004256,-0.091955203,-0.087238919,-0.081612141,-0.075892318,-0.070853194,-0.067144416,-0.06523749,-0.065392503,-0.06763773,-0.071757968,-0.077294715,-0.083567989,-0.089731563,-0.094868415,-0.098121891,-0.098844097,-0.096731569,-0.091914252,-0.084969885,-0.076851419,-0.068735927,-0.061823525,-0.057128094,-0.05530386,-0.056542799,-0.06056008,-0.066664068,-0.07388955,-0.081162572,-0.08746421,-0.09196737,-0.094131616,-0.093751752,-0.09096314,-0.086209522,-0.080178663,-0.073710136,-0.067680703,-0.062877109,-0.059872628,-0.058929455,-0.059950299,-0.062496731
-0.072046607,-0.073623349,-0.073889542,-0.073071585,-0.071700512,-0.07047167,-0.070065615,-0.070976745,-0.073393104,-0.077155431,-0.081800896,-0.086674062,-0.091071408,-0.094380561,-0.096181916,-0.096295279,-0.09477197,-0.091847345,-0.087875753,-0.083268344,-0.07844602,-0.073809349,-0.06971913,-0.066478503,-0.064310597,-0.063332572,-0.063533854,-0.06476971,-0.066779116,-0.069228637,-0.071774499,-0.074127275,-0.076100953,-0.077632215,-0.078765261,-0.079609091,-0.080283364,-0.080872249,-0.081401692,-0.081845768,-0.08215607,-0.082298973,-0.082282803,-0.082161527,-0.082011913,-0.081892966,-0.081805172,-0.081668846,-0.081334797,-0.080628434,-0.079415023,-0.077663968,-0.075487948,-0.073139455,-0.0709609,-0.069300192,-0.068416179,-0.068402984,-0.069157394,-0.070400606,-0.071749032,-0.072814176,-0.073303435,-0.073094515,-0.072265272,-0.071074524,-0.069903115,-0.069173612,-0.069269293,-0.070468766,-0.072904369,-0.076544311,-0.081193459,-0.086507257,-0.092016479,-0.097164669,-0.101362083,-0.104057559,-0.10482323,-0.103438554,-0.099953739,-0.094711711,-0.088314296,-0.081531287,-0.075166949,-0.069912179,-0.066217039,-0.064215005,-0.063717389,-0.064277789,-0.065307736,-0.066211971,-0.066508739,-0.065907912,-0.064334681,-0.061903567,-0.058860996,-0.055520189,-0.052208746,-0.049239154,-0.046900128,-0.04545739,-0.045149664,-0.046170174,-0.048633399,-0.05253687,-0.057733826,-0.063931618,-0.070722925,-0.077645016,-0.084251328,-0.09017411,-0.095159485,-0.099066368,-0.101834565,-0.103439659,-0.103857816,-0.103059873,-0.101041801,-0.097882335,-0.093804277,-0.089209646,-0.084663517,-0.080816379,-0.078275495,-0.07745533,-0.078448647,-0.08095903,-0.084322019,-0.087619232,-0.089864769,-0.090222932,-0.088206896,-0.083811678,-0.077550134,-0.070383078,-0.063557735,-0.05838704,-0.056012188,-0.057191593,-0.062152635,-0.070531123,-0.081410013,-0.093455398,-0.105134706,-0.114989427,-0.121923072,-0.125455986,-0.125894963,-0.124370735,-0.122712473,-0.123155375,-0.127911526,-0.138668623,-0.156107368,-0.179538243,-0.206747171,-0.234107335,-0.256966571,-0.270266266,-0.269300146,-0.250490462,-0.212051529,-0.154427642,-0.080429795,0.004954982,0.0950566,0.182248116,0.258805859,0.317790213,0.353835802,0.363754926,0.346882981,0.30512623,0.242707853,0.165645138,0.08102549,-0.003822887,-0.082153464,-0.148504779,-0.199191105,-0.232522156,-0.248740151,-0.249710938,-0.238445663,-0.218551837,-0.193712884,-0.167274417,-0.141980043,-0.119859611,-0.102239313,-0.089824033,-0.082801276,-0.080930352,-0.083603485,-0.089888032,-0.098573257,-0.10824656,-0.117413412,-0.124657019,-0.128815329,-0.129141095,-0.125409593,-0.117948552,-0.107582337,-0.095501611,-0.083084903,-0.071705541,-0.062555658,-0.056510333,-0.054043486,-0.055196826,-0.059596721,-0.066511594,-0.074942876,-0.083743007,-0.091752457,-0.097943644,-0.101554397,-0.102190043,-0.099874084,-0.095034331,-0.088423619,-0.080988718,-0.073713452,-0.067468224,-0.062895618,-0.060351157,-0.059902767,-0.061377122,-0.064430821,-0.06862227,-0.073466573,-0.078467565,-0.08313361,-0.086991911,-0.089616508,-0.090677682,-0.090007995,-0.087667742,-0.083985342,-0.079549795,-0.075143023,-0.071616769,-0.069736245,-0.070025017,-0.072648316,-0.07736393,-0.083553343,-0.090325986,-0.096672295,-0.101631654,-0.104441349,-0.104641358,-0.10212334,-0.097125778,-0.09018676,-0.082069363,-0.073672597,-0.065936192,-0.059743321,-0.055824322,-0.054667072,-0.056444298,-0.060971744,-0.06771086,-0.075823906,-0.084278947,-0.091990105,-0.097968769,-0.101457821,-0.102024984,-0.099601962,-0.094469684,-0.087201964,-0.078586291,-0.069539605,-0.061029784,-0.054003935,-0.049317035,-0.047652722,-0.04943354,-0.054728659,-0.063178787,-0.073965127,-0.085847649,-0.097286277,-0.106639137,-0.112410211,-0.113501419,-0.109417127,-0.100375347,-0.087298309,-0.07168099,-0.055362413,-0.040244311,-0.028010201,-0.019893771,-0.016531103,-0.017911643,-0.023423483,-0.031974263,-0.042161777,-0.052467773,-0.061451991,-0.06792802,-0.071105881,-0.070687839,-0.066905101,-0.060486012,-0.052553107,-0.044457176,-0.037569539,-0.033065425,-0.0317374,-0.033875107,-0.039235549,-0.04710908,-0.056465193,-0.066144898,-0.075057967,-0.08234572,-0.087482226,-0.090304498,-0.090979844,-0.089930795,-0.087741982,-0.085069232,-0.08256202,-0.080800694,-0.080243841,-0.081180936,-0.08369041,-0.087610498,-0.092535524,-0.097850111,-0.102807024,-0.106642396,-0.108709176,-0.108600451,-0.106232948,-0.101868702,-0.096067749,-0.089582314,-0.083217716,-0.077692576,-0.07352889,-0.070992175,-0.070087186,-0.070600471,-0.072171684,-0.074373199,-0.076781612,-0.07903229,-0.080855635,-0.08209798,-0.082730192,-0.082843996,-0.082632752,-0.082352646,-0.082263855,-0.082558625,-0.083291681,-0.084334085,-0.085370925,-0.085954659,-0.085610845,-0.08397563,-0.080930467,-0.07669444,-0.071841131,-0.067224482,-0.063822106,-0.062528038,-0.063942969,-0.068213388,-0.074960488,-0.083318121,-0.092072624,-0.099873462,-0.105468783,-0.107917302,-0.106737216,-0.101969988,-0.094156415,-0.084238899,-0.073413816,-0.062960646,-0.05407177,-0.047701687,-0.044449581,-0.044486116,-0.047533496,-0.052905307,-0.059607432,-0.06649238,-0.072447898,-0.07658968,-0.078421507,-0.077927725,-0.075573955,-0.072210827,-0.068897674,-0.066682637,-0.066386635,-0.068437841,-0.072790711,-0.07894287,-0.086040237,-0.093042036,-0.098907461,-0.102766367,-0.104045779,-0.102538067,-0.098410534,-0.092165881,-0.084567088,-0.076539355,-0.069058698,-0.063034494,-0.059193777,-0.057978362,-0.059469963,-0.063360323,-0.068980188,-0.075391865,-0.081536338
-0.102538067,-0.098410534,-0.092165881,-0.084567088,-0.076539355,-0.069058698,-0.063034494,-0.059193777,-0.057978362,-0.059469963,-0.063360323,-0.068980188,-0.075391865,-0.081536338,-0.086411436,-0.089246804,-0.089638713,-0.087614822,-0.08361452,-0.078390449,-0.072855317,-0.067909918,-0.064290053,-0.062461762,-0.062579196,-0.064502468,-0.067859467,-0.07212918,-0.076725661,-0.081069106,-0.084639937,-0.087019092,-0.087920346,-0.087217994,-0.084967735,-0.08141332,-0.076969844,-0.072177935,-0.067630928,-0.063886484,-0.06138128,-0.060368957,-0.060896317,-0.062822071,-0.065869822,-0.069697031,-0.073958107,-0.078343927,-0.082590617,-0.086463267,-0.089730556,-0.092150012,-0.09347913,-0.09351648,-0.092163296,-0.089485141,-0.085749368,-0.081419108,-0.077096932,-0.073426938,-0.070977474,-0.070133279,-0.071023384,-0.073500722,-0.077174794,-0.081484999,-0.085793913,-0.089478866,-0.092006152,-0.092981638,-0.092180348,-0.089562164,-0.085279677,-0.07967882,-0.073286386,-0.066774865,-0.060896923,-0.056389699,-0.053860486,-0.053675994,-0.05588264,-0.060182133,-0.065974712,-0.07246504,-0.078808044,-0.084260092,-0.088298791,-0.090683712,-0.091447549,-0.090827329,-0.089161635,-0.086787281,-0.083965354,-0.080853711,-0.077525756,-0.074019688,-0.070393743,-0.066763812,-0.063309061,-0.060244978,-0.057776142,-0.056048235,-0.055118042,-0.054952305,-0.055454589,-0.05650867,-0.058021219,-0.059947737,-0.062292894,-0.065086561,-0.068345792,-0.072037492,-0.076055156,-0.080216792,-0.084282932,-0.087986954,-0.091067366,-0.093293918,-0.0944849,-0.094518736,-0.093346025,-0.091006563,-0.08765037,-0.083554597,-0.079123389,-0.074858306,-0.071293986,-0.068905782,-0.068008966,-0.068677648,-0.070711584,-0.073668947,-0.076965032,-0.080015999,-0.082390107,-0.083922543,-0.084757085,-0.085297266,-0.086076051,-0.08757841,-0.09006748,-0.093466898,-0.097338393,-0.100968412,-0.103547922,-0.104403828,-0.103225793,-0.100232082,-0.096231562,-0.092561628,-0.090907413,-0.093029789,-0.100444611,-0.114101821,-0.134111792,-0.159559987,-0.188441902,-0.217739535,-0.243647923,-0.261944704,-0.268476735,-0.259716652,-0.233322261,-0.188617735,-0.126913053,-0.051590727,0.032082776,0.117422726,0.197024618,0.263608754,0.31089462,0.334378493,0.331899374,0.303909742,0.253412643,0.185576921,0.107088993,0.02533519,-0.052471445,-0.120103421,-0.172967213,-0.208511371,-0.226352908,-0.228119404,-0.217042253,-0.197369131,-0.17368707,-0.150257861,-0.130462957,-0.11643511,-0.108921315,-0.10738119,-0.110284184,-0.115535874,-0.120944987,-0.124642469,-0.125381526,-0.122678439,-0.116790297,-0.108558825,-0.099171919,-0.089902225,-0.081875525,-0.075904774,-0.072404715,-0.071383267,-0.072493639,-0.075126629,-0.078524116,-0.081899016,-0.084550507,-0.085964297,-0.085886587,-0.08435923,-0.081705494,-0.078462469,-0.075267387,-0.072718045,-0.071237788,-0.070978746,-0.071790569,-0.073266477,-0.074857798,-0.07602841,-0.076407981,-0.075901923,-0.074727247,-0.073364015,-0.072435506,-0.072549524,-0.074142814,-0.077367786,-0.082047255,-0.08770336,-0.093647713,-0.099106493,-0.10335007,-0.105801469,-0.106108544,-0.104176548,-0.100166653,-0.094469489,-0.087661241,-0.080445718,-0.073582418,-0.067800759,-0.063704943,-0.061680992,-0.061823805,-0.063904168,-0.067391045,-0.071533303,-0.075490099,-0.07848502,-0.079950641,-0.079630715,-0.077617031,-0.074314531,-0.070346394,-0.066424985,-0.063220717,-0.061257481,-0.060852279,-0.062102261,-0.064909529,-0.069026853,-0.074107348,-0.079746983,-0.085517124,-0.090991203,-0.095772163,-0.09952471,-0.102010391,-0.103117267,-0.102873002,-0.101432521,-0.099038856,-0.095965606,-0.092457698,-0.088689998,-0.084758796,-0.080710209,-0.07659562,-0.072532507,-0.068744159,-0.065556312,-0.063342013,-0.062423857,-0.062959374,-0.064844714,-0.067670429,-0.070750757,-0.073228049,-0.074232806,-0.07306366,-0.069345443,-0.063128656,-0.054908336,-0.045559623,-0.036205659,-0.028045881,-0.022177062,-0.019435953,-0.020283881,-0.024743857,-0.032392577,-0.042404676,-0.053644055,-0.064795331,-0.074525365,-0.081659751,-0.085352774,-0.085224359,-0.081436934,-0.074691291,-0.066133713,-0.057184417,-0.049315386,-0.043818437,-0.041607918,-0.043094961,-0.04815365,-0.056178358,-0.066211924,-0.077111702,-0.087717822,-0.096994837,-0.104131005,-0.108593542,-0.110148439,-0.108857008,-0.105058197,-0.099338725,-0.092486444,-0.08541993,-0.079090962,-0.074365434,-0.071898793,-0.072029983,-0.074719011,-0.079546367,-0.085778915,-0.0924907,-0.098713554,-0.103585896,-0.106470592,-0.107023199,-0.105206337,-0.101259401,-0.095640843,-0.088960903,-0.081916801,-0.075233614,-0.069606761,-0.065639865,-0.063775832,-0.064227507,-0.066923082,-0.0714859,-0.077265135,-0.083422762,-0.08906625,-0.09340092,-0.095866719,-0.096225239,-0.094574808,-0.091290996,-0.086910961,-0.081995759,-0.077009916,-0.072250498,-0.067840947,-0.063783853,-0.060048475,-0.056659266,-0.053753539,-0.051588757,-0.050497892,-0.050808671,-0.052753341,-0.05639675,-0.061602289,-0.068041438,-0.075238651,-0.082634227,-0.089646544,-0.095720991,-0.100362929,-0.103161174,-0.103812708,-0.102156702,-0.098217673,-0.092247439,-0.084748173,-0.076458118,-0.068288598,-0.061214025,-0.056131252,-0.05371581,-0.054306017,-0.057840472,-0.063861605,-0.071582148,-0.079997717,-0.088021217,-0.094615146,-0.098904623,-0.100263501,-0.098373935,-0.093263084,-0.085318562,-0.075278805,-0.064189475,-0.053316422,-0.044011623,-0.037540547,-0.034893664,-0.03661632,-0.042694584,-0.052527392,-0.064998088,-0.078635827,-0.091835892,-0.10309438,-0.111211167,-0.115425789,-0.115470163
-0.095720991,-0.100362929,-0.103161174,-0.103812708,-0.102156702,-0.098217673,-0.092247439,-0.084748173,-0.076458118,-0.068288598,-0.061214025,-0.056131252,-0.05371581,-0.054306017,-0.057840472,-0.063861605,-0.071582148,-0.079997717,-0.088021217,-0.094615146,-0.098904623,-0.100263501,-0.098373935,-0.093263084,-0.085318562,-0.075278805,-0.064189475,-0.053316422,-0.044011623,-0.037540547,-0.034893664,-0.03661632,-0.042694584,-0.052527392,-0.064998088,-0.078635827,-0.091835892,-0.10309438,-0.111211167,-0.115425789,-0.115470163,-0.111543514,-0.104231602,-0.094399734,-0.083085704,-0.071407701,-0.060488469,-0.051386671,-0.045023509,-0.042098207,-0.04299722,-0.047714041,-0.055803718,-0.066394892,-0.078271807,-0.090022056,-0.100228244,-0.107668962,-0.111490746,-0.111319228,-0.107292241,-0.100015464,-0.090456803,-0.079804816,-0.06931751,-0.060182079,-0.053397252,-0.049682018,-0.049410566,-0.052574016,-0.058773099,-0.067249,-0.076958886,-0.086696529,-0.095247947,-0.101560358,-0.104894568,-0.104930007,-0.101799527,-0.096046367,-0.088513861,-0.080194127,-0.072070016,-0.064982756,-0.059546864,-0.056118175,-0.054805709,-0.055508655,-0.057958691,-0.061754518,-0.06638643,-0.071258877,-0.07572397,-0.07913635,-0.080930923,-0.080713092,-0.078341338,-0.073978567,-0.068093502,-0.061405329,-0.054779995,-0.04909973,-0.045134056,-0.043438565,-0.044298062,-0.04771707,-0.05344804,-0.061040407,-0.069893882,-0.079306069,-0.088514231,-0.096739008,-0.103240346,-0.107391318,-0.108765512,-0.107222224,-0.102965931,-0.096556361,-0.088854177,-0.080902907,-0.073765545,-0.068348299,-0.065249625,-0.064667714,-0.066385484,-0.069833197,-0.074210897,-0.078641121,-0.082319588,-0.084637443,-0.085259914,-0.084158307,-0.081600947,-0.078111919,-0.074404777,-0.071294727,-0.069590781,-0.069971656,-0.072856219,-0.078288581,-0.085865295,-0.09473293,-0.103675848,-0.111296495,-0.116267788,-0.117615269,-0.114972323,-0.108749921,-0.100174519,-0.091171687,-0.084103068,-0.08139328,-0.085104962,-0.096530159,-0.115863883,-0.142013027,-0.172574679,-0.203996298,-0.23190913,-0.251606834,-0.258623847,-0.249352413,-0.221624433,-0.175176911,-0.11192149,-0.035953047,0.046738633,0.128848216,0.202570374,0.260550023,0.296831993,0.307663239,0.292016197,0.251743353,0.191333226,0.11730482,0.037337459,-0.040726104,-0.109850694,-0.164614061,-0.201742279,-0.220320393,-0.221676246,-0.208982223,-0.186653946,-0.159643969,-0.132732592,-0.109909097,-0.093918086,-0.086019749,-0.085982462,-0.092293856,-0.102545752,-0.113923465,-0.123715377,-0.129757923,-0.130745609,-0.126363379,-0.117234314,-0.104711508,-0.090570932,-0.07667576,-0.064679352,-0.055815791,-0.050799462,-0.04982682,-0.052651951,-0.058698024,-0.067170067,-0.077147658,-0.087652897,-0.097702915,-0.106362355,-0.112808104,-0.116408324,-0.116805212,-0.113981329,-0.108287105,-0.10041332,-0.091305273,-0.082030581,-0.073624995,-0.066946325,-0.062563902,-0.060701305,-0.061236915,-0.063754454,-0.0676276,-0.072120542,-0.076488983,-0.080071305,-0.082364265,-0.083079804,-0.082179139,-0.079878686,-0.076622084,-0.07301565,-0.069731409,-0.067390958,-0.066451565,-0.067119537,-0.069312517,-0.072681866,-0.076691182,-0.080731806,-0.084245984,-0.086826637,-0.088270534,-0.088576393,-0.087896371,-0.086462688,-0.08451636,-0.082260686,-0.079850038,-0.077409453,-0.075068196,-0.072985501,-0.071350867,-0.070352898,-0.070125117,-0.070688765,-0.071916647,-0.073536794,-0.07518178,-0.076473501,-0.077120058,-0.076995752,-0.076179409,-0.074938731,-0.073664976,-0.072777063,-0.072622465,-0.073401316,-0.075130991,-0.07765472,-0.080684589,-0.083861197,-0.086811494,-0.089192312,-0.09071652,-0.091167312,-0.09041011,-0.088409473,-0.08525146,-0.081163577,-0.076518878,-0.071811178,-0.067595287,-0.064397726,-0.062615215,-0.062425724,-0.063736818,-0.066187664,-0.06920707,-0.072114679,-0.07424123,-0.075040162,-0.074167716,-0.071519851,-0.067227427,-0.06162129,-0.055182902,-0.048493148,-0.042184368,-0.036892512,-0.033202034,-0.031578233,-0.032289865,-0.035335708,-0.04039738,-0.046842224,-0.053792171,-0.060258172,-0.065319657,-0.068311222,-0.068970773,-0.06750843,-0.064573334,-0.061121368,-0.05821315,-0.05679041,-0.057484339,-0.060499952,-0.065599225,-0.072179306,-0.07941862,-0.086449722,-0.092516588,-0.097084545,-0.099888542,-0.100923719,-0.10039536,-0.098650284,-0.096108537,-0.093206049,-0.090350044,-0.087883419,-0.086053766,-0.084986606,-0.084667735,-0.084942997,-0.085542724,-0.086132134,-0.086380296,-0.086032277,-0.08496558,-0.083214932,-0.08095844,-0.078470183,-0.076054963,-0.073986188,-0.072465494,-0.071613496,-0.071488449,-0.072118452,-0.073527623,-0.075739642,-0.078752227,-0.082489831,-0.086753555,-0.091192386,-0.095315739,-0.098554977,-0.100365091,-0.100342821,-0.098329538,-0.094469229,-0.089203374,-0.083201735,-0.077245449,-0.072090712,-0.06834441,-0.066376978,-0.066285265,-0.067904169,-0.070854794,-0.074612184,-0.078577519,-0.082145916,-0.084767852,-0.086006271,-0.085590708,-0.083464901,-0.079818124,-0.075086631,-0.069913217,-0.065060887,-0.061289292,-0.05921569,-0.0591911,-0.061222849,-0.064965857,-0.069788491,-0.074899527,-0.079506462,-0.082967359,-0.084900977,-0.085232377,-0.084169271,-0.082122585,-0.079597351,-0.077083935,-0.074974391,-0.073517216,-0.072810474,-0.072822898,-0.07342809,-0.074438898,-0.075635312,-0.076786377,-0.077671087,-0.078103214,-0.077960708,-0.077214176,-0.075944281,-0.074337516,-0.072654787,-0.071176043,-0.070133766,-0.06965438,-0.069726616,-0.07020885,-0.070875401,-0.071488655,-0.071874604,-0.071977354,-0.071874505
-0.07342809,-0.074438898,-0.075635312,-0.076786377,-0.077671087,-0.078103214,-0.077960708,-0.077214176,-0.075944281,-0.074337516,-0.072654787,-0.071176043,-0.070133766,-0.06965438,-0.069726616,-0.07020885,-0.070875401,-0.071488655,-0.071874604,-0.071977354,-0.071874505,-0.07174813,-0.071820873,-0.072278397,-0.07320383,-0.074545544,-0.076128014,-0.077701051,-0.079010304,-0.07986595,-0.080188708,-0.080021378,-0.079506449,-0.078841119,-0.078226636,-0.077827609,-0.077750072,-0.078037989,-0.078680598,-0.079620514,-0.080755685,-0.081935257,-0.082956738,-0.083575579,-0.083536221,-0.082625675,-0.080739848,-0.077943285,-0.074499405,-0.070852995,-0.067559302,-0.065170844,-0.064108494,-0.064551869,-0.06638202,-0.069196715,-0.072398757,-0.075336747,-0.07746216,-0.078461413,-0.078328429,-0.077359857,-0.076076297,-0.075092169,-0.07496863,-0.076085359,-0.078558673,-0.082218896,-0.086644337,-0.091237381,-0.095322764,-0.098249254,-0.099481167,-0.098672292,-0.095718624,-0.090787052,-0.084315441,-0.076978271,-0.069613577,-0.063113027,-0.058286622,-0.05572377,-0.05567927,-0.058012381,-0.062198278,-0.067415288,-0.072692614,-0.077087467,-0.079852608,-0.080557969,-0.079142545,-0.075891243,-0.071350065,-0.066206331,-0.061165031,-0.056847383,-0.05372614,-0.052098676,-0.052088417,-0.053660886,-0.056643092,-0.060741856,-0.065564214,-0.070647236,-0.075503359,-0.079680952,-0.08283113,-0.084764788,-0.085482166,-0.085162498,-0.084112374,-0.082684644,-0.081190318,-0.079829584,-0.078663063,-0.077631831,-0.076618614,-0.075528429,-0.074359788,-0.073240116,-0.072410669,-0.072163146,-0.072746719,-0.07427477,-0.07666166,-0.079611104,-0.082662178,-0.085281858,-0.086979888,-0.087416481,-0.086477096,-0.084299139,-0.081248908,-0.077858808,-0.074741487,-0.072498146,-0.071634297,-0.072490665,-0.075192865,-0.079622579,-0.085414809,-0.091988167,-0.098614933,-0.104532611,-0.109088688,-0.111897581,-0.112977661,-0.11283139,-0.112436449,-0.113130655,-0.116395771,-0.12356946,-0.135534167,-0.152441241,-0.173525422,-0.197049884,-0.220399334,-0.240314056,-0.253236595,-0.255728744,-0.244910279,-0.218871125,-0.177012342,-0.120276359,-0.051232541,0.026008288,0.106064659,0.182736218,0.249606703,0.300739442,0.331380391,0.338567637,0.321547366,0.28191789,0.223463727,0.151693876,0.07315123,-0.005398439,-0.077769214,-0.1390262,-0.185931389,-0.217116398,-0.232985441,-0.235396919,-0.227201974,-0.211729448,-0.192299811,-0.171830894,-0.152572488,-0.1359813,-0.122726831,-0.112803975,-0.105719371,-0.100714333,-0.096986674,-0.093876607,-0.090988767,-0.088233732,-0.085787496,-0.083984205,-0.083172249,-0.083572468,-0.085176551,-0.087712937,-0.090688833,-0.093495582,-0.095546626,-0.096408502,-0.095888479,-0.094056629,-0.091200859,-0.087733804,-0.084083969,-0.080605725,-0.077533338,-0.074986739,-0.073017536,-0.07166968,-0.071025072,-0.071211537,-0.072366207,-0.074565608,-0.07774806,-0.081659131,-0.085845015,-0.089703956,-0.09258733,-0.093926061,-0.093350015,-0.090770145,-0.086404279,-0.080743304,-0.074469746,-0.068350468,-0.063127307,-0.059424385,-0.057681862,-0.058117111,-0.060709064,-0.065201164,-0.071121688,-0.077824318,-0.084553231,-0.090533685,-0.095081307,-0.09771366,-0.098240406,-0.096807303,-0.093876402,-0.09013918,-0.086377052,-0.083299312,-0.081396686,-0.080846315,-0.081491222,-0.082897956,-0.084475721,-0.085625192,-0.085879487,-0.085004638,-0.083040052,-0.080276289,-0.077182578,-0.074305807,-0.072164605,-0.071157704,-0.071498169,-0.073177757,-0.075961246,-0.079409399,-0.082929928,-0.085855808,-0.087547429,-0.087508801,-0.085500008,-0.081621595,-0.076345392,-0.07047283,-0.065016119,-0.061016684,-0.059333812,-0.060448633,-0.064329909,-0.0703972,-0.077596013,-0.084573984,-0.089923761,-0.092443291,-0.091361268,-0.086484692,-0.078243455,-0.067628407,-0.056038839,-0.045068774,-0.036267321,-0.030907605,-0.029793773,-0.033129106,-0.040461724,-0.050717934,-0.062325722,-0.073420758,-0.082114522,-0.086790128,-0.086379896,-0.080573929,-0.069914551,-0.055748648,-0.040036286,-0.025043901,-0.012976346,-0.005616952,-0.004044136,-0.008476632,-0.018271399,-0.032065928,-0.048028405,-0.064161617,-0.078602866,-0.089871518,-0.097033714,-0.09977403,-0.098380858,-0.093662418,-0.086813382,-0.079250232,-0.072430309,-0.067668208,-0.065964896,-0.067868559,-0.073388764,-0.081983552,-0.092630579,-0.103978688,-0.114558661,-0.123016373,-0.128323544,-0.129924154,-0.127788525,-0.122368805,-0.1144729,-0.105092104,-0.095225545,-0.085740095,-0.077289697,-0.070298266,-0.064991997,-0.061455673,-0.059686182,-0.059624244,-0.061158384,-0.064108302,-0.068203122,-0.073071169,-0.078252216,-0.08323375,-0.087503684,-0.09060683,-0.092192885,-0.092048761,-0.09011505,-0.086491592,-0.08143812,-0.075372276,-0.068860918,-0.062595069,-0.057337699,-0.053838661,-0.052721867,-0.054362647,-0.058783433,-0.06559855,-0.07403177,-0.083014165,-0.091349052,-0.097911742,-0.101840631,-0.102676813,-0.100422108,-0.09550639,-0.088678009,-0.080849014,-0.072934635,-0.06572251,-0.059793667,-0.055499587,-0.052983741,-0.052226906,-0.053095082,-0.055375754,-0.058798643,-0.063046324,-0.067764566,-0.0725808,-0.077133164,-0.081105446,-0.084258503,-0.08644866,-0.087628262,-0.087830712,-0.087148597,-0.085715745,-0.083700966,-0.081313831,-0.078814418,-0.076513459,-0.074749828,-0.073839682,-0.074003512,-0.07528966,-0.077520251,-0.080284329,-0.082992255,-0.084987904,-0.08569618,-0.084769376,-0.082192116,-0.078312949,-0.07378926,-0.069455431,-0.066145216,-0.064511573,-0.064887277,-0.067217789,-0.071078268,-0.075765279,-0.080437199
-0.067217789,-0.071078268,-0.075765279,-0.080437199,-0.084269429,-0.086592546,-0.086990955,-0.085352306,-0.081869255,-0.077002052,-0.071412191,-0.065875738,-0.06118272,-0.058028973,-0.056909887,-0.058030574,-0.061251064,-0.066084854,-0.071762259,-0.077356819,-0.081956389,-0.084845605,-0.085658392,-0.084461905,-0.081747209,-0.078324172,-0.075142348,-0.073079201,-0.072745872,-0.074356202,-0.077688139,-0.08214291,-0.086883299,-0.091014756,-0.093766087,-0.094631142,-0.093446339,-0.090396291,-0.085955849,-0.080787603,-0.075617972,-0.071113469,-0.06777419,-0.065856769,-0.06533543,-0.065907345,-0.06704554,-0.06809752,-0.068419679,-0.06752745,-0.065232074,-0.061730591,-0.05761958,-0.053816538,-0.051393542,-0.051351224,-0.05438025,-0.060666316,-0.069789264,-0.08074756,-0.092110605,-0.102270622,-0.109741504,-0.113440588,-0.112893628,-0.108321632,-0.100595341,-0.091071564,-0.081348333,-0.072988411,-0.067261512,-0.064946782,-0.066222399,-0.070652872,-0.077270095,-0.084732897,-0.091541801,-0.096279922,-0.097847048,-0.095652185,-0.089731745,-0.080767898,-0.069995365,-0.059004206,-0.049467675,-0.042842952,-0.040102798,-0.041553938,-0.046782091,-0.054737024,-0.063939954,-0.072768265,-0.079755932,-0.083846863,-0.084552379,-0.081989013,-0.076801459,-0.069999891,-0.062755138,-0.056196831,-0.051250218,-0.04853156,-0.048305605,-0.050496452,-0.054737576,-0.060447187,-0.066918703,-0.073419387,-0.079290547,-0.084039795,-0.087411619,-0.089420189,-0.090331123,-0.090587957,-0.090693061,-0.091067414,-0.09192387,-0.09318964,-0.094503908,-0.09529745,-0.094938247,-0.092907174,-0.088957607,-0.083215671,-0.076193466,-0.068711248,-0.061749023,-0.056265873,-0.053031521,-0.05250779,-0.054800774,-0.059683627,-0.066671714,-0.07512178,-0.084326934,-0.093588069,-0.102255597,-0.109747733,-0.115558802,-0.119271437,-0.12058103,-0.119332706,-0.115563929,-0.109542367,-0.101789419,-0.093083416,-0.084440342,-0.077071755,-0.072318409,-0.071555328,-0.076062258,-0.086855912,-0.104488846,-0.12883372,-0.158887556,-0.192643084,-0.227077529,-0.258299522,-0.281871558,-0.293292365,-0.288587635,-0.264927452,-0.221172163,-0.158250223,-0.079292034,0.010520789,0.104388102,0.194560401,0.273163842,0.33307803,0.3687557,0.37688008,0.356774721,0.310509393,0.24268153,0.1598926,0.069978946,-0.018907711,-0.099249569,-0.165011859,-0.212272264,-0.239542272,-0.247740051,-0.239831463,-0.220210845,-0.193934985,-0.165943487,-0.140392306,-0.120196856,-0.106834074,-0.100400478,-0.099877195,-0.103522502,-0.109302376,-0.115279063,-0.11990144,-0.122170957,-0.12168503,-0.118580143,-0.113406977,-0.106970778,-0.100165064,-0.093819735,-0.088578557,-0.084816786,-0.082606704,-0.081734911,-0.081769205,-0.082164445,-0.082387878,-0.082038006,-0.080930156,-0.079128311,-0.076915518,-0.074711215,-0.072958277,-0.072010674,-0.072051606,-0.073061907,-0.074842646,-0.077079475,-0.079424909,-0.081571892,-0.083298423,-0.084475785,-0.085047101,-0.084993266,-0.08430599,-0.082982132,-0.081042282,-0.07856423,-0.075713735,-0.07275414,-0.070023441,-0.067879706,-0.066628527,-0.066454501,-0.067379143,-0.069259774,-0.071830551,-0.07477263,-0.07779081,-0.080672262,-0.083309771,-0.085684792,-0.087819793,-0.089719785,-0.091325928,-0.092498929,-0.093038588,-0.092732847,-0.091419632,-0.089041234,-0.085674812,-0.081531805,-0.076929846,-0.072248747,-0.067884615,-0.0642125,-0.061560584,-0.060191429,-0.060282011,-0.061896294,-0.064951232,-0.06918625,-0.074152962,-0.079242172,-0.083757486,-0.087030725,-0.088558261,-0.088125361,-0.08588259,-0.082346777,-0.078317198,-0.074720531,-0.072418603,-0.072024482,-0.073771273,-0.077464247,-0.082525073,-0.088113538,-0.093294295,-0.097208557,-0.099214455,-0.098972511,-0.096469203,-0.091986444,-0.086033774,-0.079261936,-0.0723727,-0.066033718,-0.060802457,-0.057061846,-0.054972335,-0.054448222,-0.055167414,-0.056620732,-0.058198966,-0.05930515,-0.059469677,-0.058441189,-0.056229468,-0.053087855,-0.049439201,-0.045765803,-0.042494604,-0.039910295,-0.038119892,-0.037075756,-0.03664522,-0.036700257,-0.037194911,-0.038203242,-0.039904595,-0.042521065,-0.046228067,-0.05106756,-0.056892142,-0.063357826,-0.069967809,-0.076154414,-0.081376679,-0.085209444,-0.087405829,-0.087925492,-0.08693153,-0.084765227,-0.081908412,-0.078938784,-0.076477568,-0.075125178,-0.075382113,-0.07755941,-0.081693014,-0.087484993,-0.094296625,-0.101211434,-0.10717041,-0.11116113,-0.112423576,-0.110624841,-0.10595711,-0.099128937,-0.091245123,-0.083598511,-0.077419522,-0.073639793,-0.072721916,-0.074589563,-0.078666833,-0.084009936,-0.089495428,-0.0940216,-0.096683682,-0.096896408,-0.094453601,-0.08952867,-0.082628375,-0.074514293,-0.066103953,-0.058359961,-0.0521738,-0.048252724,-0.047022321,-0.048561104,-0.052583468,-0.058481447,-0.065424102,-0.072498943,-0.078867309,-0.08389968,-0.087260422,-0.088924174,-0.089124503,-0.088253807,-0.086745846,-0.0849748,-0.083196483,-0.081541583,-0.080052782,-0.07874375,-0.077652767,-0.07686847,-0.076517795,-0.076721593,-0.077535958,-0.0789026,-0.080628032,-0.082400807,-0.083842805,-0.084579559,-0.084309893,-0.082857642,-0.080196464,-0.07644873,-0.071867002,-0.066808833,-0.061712066,-0.057070846,-0.053406002,-0.05122102,-0.050938587,-0.052821661,-0.056893901,-0.062882314,-0.070205916,-0.078026369,-0.085361334,-0.091243179,-0.094890607,-0.095854099,-0.09410045,-0.090016222,-0.084330271,-0.077975365,-0.071922296,-0.067023159,-0.06389348,-0.062848932,-0.06389667,-0.066769307,-0.070984408,-0.075914521,-0.080859519,-0.085120109,-0.088074803,-0.08926044
-0.067571093,-0.063915079,-0.061578539,-0.061049412,-0.062537269,-0.065916601,-0.070733068,-0.076277088,-0.08171235,-0.086231768,-0.089205197,-0.09028489,-0.089446234,-0.086959296,-0.08330544,-0.079066713,-0.074819636,-0.071058587,-0.06815997,-0.066382106,-0.065883553,-0.066738492,-0.068933472,-0.072342334,-0.076690676,-0.081531447,-0.086254946,-0.090148179,-0.092502752,-0.092752637,-0.090609546,-0.08615936,-0.079890028,-0.072637659,-0.065458237,-0.059451027,-0.055571009,-0.054468495,-0.056385313,-0.061122062,-0.068075054,-0.076329249,-0.084787248,-0.09231416,-0.097881511,-0.100697335,-0.100311742,-0.096687165,-0.090221718,-0.081715171,-0.072272575,-0.06315098,-0.055568304,-0.050506216,-0.048546052,-0.049774561,-0.053783535,-0.059766473,-0.066691818,-0.073512796,-0.079364554,-0.083703297,-0.086358601,-0.087494135,-0.087496559,-0.086830034,-0.085899616,-0.084959741,-0.084086977,-0.083215135,-0.082212555,-0.080971194,-0.079477372,-0.077843425,-0.076293819,-0.07511355,-0.074576208,-0.074871998,-0.076052675,-0.078003336,-0.080443675,-0.082956077,-0.085035671,-0.086157289,-0.085854119,-0.083801098,-0.079892396,-0.074297991,-0.067482185,-0.060169533,-0.053252502,-0.04764912,-0.044134379,-0.043181128,-0.044849825,-0.048759134,-0.054151648,-0.060045336,-0.065438172,-0.069518073,-0.071827444,-0.072342889,-0.071452737,-0.069841687,-0.068315162,-0.067609386,-0.0682332,-0.070375222,-0.073889688,-0.078352971,-0.083166805,-0.087677651,-0.091284986,-0.093521583,-0.094101254,-0.092939062,-0.090152735,-0.08605172,-0.08111458,-0.075950156,-0.071236698,-0.067637482,-0.065700254,-0.065757538,-0.067851177,-0.071703874,-0.076751816,-0.082237767,-0.087347596,-0.09136048,-0.093778343,-0.09440523,-0.093360763,-0.091029258,-0.087962026,-0.084759991,-0.081964719,-0.079978841,-0.079025291,-0.079143208,-0.080210991,-0.081985548,-0.084150531,-0.086371955,-0.08836325,-0.08996054,-0.091202221,-0.0923972,-0.094157865,-0.09737179,-0.103093547,-0.11235475,-0.125912875,-0.143981357,-0.165997781,-0.190488622,-0.21507594,-0.236646441,-0.251672095,-0.256641878,-0.248542838,-0.225319984,-0.186248757,-0.132168424,-0.065544827,0.00964812,0.088220171,0.164206255,0.231421169,0.2840786,0.31741392,0.32824057,0.315366076,0.279800092,0.224706591,0.155085409,0.077210497,-0.002104607,-0.076309491,-0.139867171,-0.188838624,-0.221217999,-0.236981023,-0.237860678,-0.226909765,-0.207939847,-0.184935407,-0.161531621,-0.140619338,-0.124109845,-0.112862687,-0.106757716,-0.104879687,-0.105778645,-0.107768981,-0.109231155,-0.108881148,-0.105974445,-0.100415879,-0.092756469,-0.084074265,-0.075756594,-0.069221594,-0.065632018,-0.065658745,-0.069342701,-0.076083136,-0.084752236,-0.093908145,-0.102058069,-0.107915371,-0.110600823,-0.109755707,-0.105557388,-0.098649341,-0.090011977,-0.080805249,-0.072210007,-0.065286031,-0.060855441,-0.059414418,-0.061075305,-0.065543875,-0.072139444,-0.079865166,-0.087530079,-0.093913709,-0.097951434,-0.098908827,-0.096510168,-0.090992555,-0.083071652,-0.073824451,-0.064512819,-0.056383864,-0.050485687,-0.047529938,-0.04781841,-0.051234869,-0.057290357,-0.065203875,-0.074001242,-0.082620799,-0.09002153,-0.095293065,-0.09776563,-0.097111789,-0.093423756,-0.087244634,-0.07953318,-0.071551345,-0.064680563,-0.060192219,-0.059013871,-0.061540024,-0.067531393,-0.076129907,-0.085992214,-0.095518439,-0.103132205,-0.107557575,-0.108040621,-0.104476439,-0.097422483,-0.088000856,-0.077710817,-0.068185241,-0.060930288,-0.057086915,-0.057248029,-0.061357416,-0.068706904,-0.078036481,-0.087728153,-0.096068916,-0.101543495,-0.103106943,-0.100384721,-0.093756327,-0.084298339,-0.073590758,-0.063420752,-0.055442654,-0.050865241,-0.050232788,-0.053345589,-0.059333467,-0.066860552,-0.074410618,-0.080586814,-0.084361249,-0.085227007,-0.083232206,-0.078904467,-0.073097062,-0.06679961,-0.060955448,-0.056317069,-0.05335558,-0.052225498,-0.052776531,-0.054600599,-0.057103891,-0.059596872,-0.061396795,-0.061935361,-0.060859485,-0.058108051,-0.053945769,-0.0489393,-0.04387148,-0.039604239,-0.0369156,-0.036345666,-0.038087187,-0.041946883,-0.047386745,-0.053634667,-0.059837204,-0.065218579,-0.069211705,-0.071537454,-0.072223883,-0.071572109,-0.070085623,-0.068382633,-0.067107355,-0.066849012,-0.068070771,-0.071048052,-0.075817586,-0.082143762,-0.089513664,-0.097173235,-0.104211838,-0.10969148,-0.112803183,-0.11302111,-0.110219817,-0.10472426,-0.097275736,-0.088916317,-0.080814006,-0.074065089,-0.069514688,-0.067630486,-0.068450183,-0.071605286,-0.076407691,-0.08197542,-0.087371613,-0.091735138,-0.094388974,-0.094919844,-0.093226859,-0.089537424,-0.084386948,-0.07855802,-0.072977303,-0.068575829,-0.066129226,-0.066105189,-0.068551604,-0.073056342,-0.078797452,-0.084682534,-0.089553385,-0.092413491,-0.092627433,-0.090046156,-0.085029448,-0.07836226,-0.071087356,-0.064296,-0.058925661,-0.055607745,-0.054591819,-0.055751368,-0.058656503,-0.062686553,-0.067152613,-0.071405846,-0.074917983,-0.077331243,-0.078481991,-0.07840415,-0.07731577,-0.075588155,-0.073694887,-0.072140257,-0.071372788,-0.071697491,-0.073206363,-0.07574704,-0.078942882,-0.082265145,-0.085143096,-0.087085871,-0.087784974,-0.087170888,-0.085410101,-0.082846108,-0.079903966,-0.076987509,-0.074398383,-0.072296914,-0.07070989,-0.069574972,-0.068800878,-0.068320023,-0.068116246,-0.068221633,-0.068688881,-0.069554101,-0.070806784,-0.0723786,-0.074153383,-0.075991371,-0.077755409,-0.079327547,-0.080610756,-0.081519184,-0.081967475,-0.081871572,-0.081168856,-0.079855963,-0.078032026
-0.081871572,-0.081168856,-0.079855963,-0.078032026,-0.075928063,-0.073903401,-0.072398328,-0.071846353,-0.07256479,-0.074653216,-0.077931306,-0.081939196,-0.086006981,-0.089380332,-0.091372801,-0.09150747,-0.089613716,-0.085857697,-0.080703436,-0.074819077,-0.068954634,-0.063820374,-0.059989149,-0.057834782,-0.057506699,-0.058932844,-0.061840626,-0.065788955,-0.070210282,-0.074466154,-0.077919998,-0.080025698,-0.080421707,-0.079011863,-0.07600998,-0.071928794,-0.067505295,-0.063571025,-0.060892532,-0.060018153,-0.061168409,-0.064197495,-0.06863518,-0.073797253,-0.078935008,-0.083385496,-0.0866867,-0.088634308,-0.089274638,-0.088845795,-0.087690758,-0.086168966,-0.084587396,-0.083161307,-0.082003446,-0.081132831,-0.080492353,-0.079968019,-0.079408672,-0.078650003,-0.07754739,-0.076018038,-0.074085533,-0.071912958,-0.069808041,-0.068187863,-0.067501334,-0.068121911,-0.070235918,-0.073758338,-0.078304679,-0.0832346,-0.087763644,-0.091119569,-0.092705756,-0.092230572,-0.089769857,-0.085747371,-0.080839767,-0.075831724,-0.071457928,-0.06826871,-0.066546338,-0.066283047,-0.067215431,-0.068897719,-0.070791794,-0.072354433,-0.073109687,-0.072702607,-0.070936245,-0.067795142,-0.06345598,-0.058282113,-0.052796361,-0.047627997,-0.043435478,-0.040814451,-0.040207483,-0.04183477,-0.045661765,-0.051410944,-0.058613424,-0.06668586,-0.075012671,-0.083014902,-0.090194323,-0.096151688,-0.100587314,-0.103296778,-0.104172947,-0.103218636,-0.100565181,-0.09648512,-0.091385405,-0.085772262,-0.080188584,-0.075135792,-0.071000074,-0.068004096,-0.066198767,-0.065497077,-0.065737903,-0.066757053,-0.068440025,-0.07073734,-0.073637125,-0.077106025,-0.081022637,-0.085132358,-0.089046781,-0.092296041,-0.094423792,-0.09509828,-0.094205214,-0.09189172,-0.088544814,-0.084707856,-0.08095781,-0.077778358,-0.075465236,-0.074090269,-0.073533097,-0.073570165,-0.073995218,-0.074738422,-0.075953383,-0.078050841,-0.081670709,-0.087596256,-0.096622651,-0.109396233,-0.126242058,-0.146997867,-0.170874606,-0.196367127,-0.221241854,-0.242627745,-0.257229218,-0.261663241,-0.252898612,-0.228747989,-0.18833945,-0.132481491,-0.063839184,0.013138507,0.092562174,0.167691259,0.231698309,0.278501923,0.303544997,0.304399432,0.281103703,0.236180474,0.174330063,0.101843596,0.025819576,-0.046705947,-0.109595562,-0.158299964,-0.190310098,-0.205316011,-0.205058908,-0.192907649,-0.173231783,-0.150673872,-0.129438667,-0.112712136,-0.102298886,-0.098525708,-0.100409128,-0.10603578,-0.113066621,-0.119257597,-0.122894188,-0.123063574,-0.119728976,-0.113615759,-0.10595726,-0.098171714,-0.09154615,-0.086990218,-0.084898236,-0.085129208,-0.087089747,-0.089888618,-0.092525617,-0.09407989,-0.09387005,-0.091566942,-0.087247315,-0.081382753,-0.07476413,-0.068369193,-0.06319009,-0.060047511,-0.059425609,-0.061363337,-0.065430679,-0.070802251,-0.076418808,-0.081204863,-0.084294499,-0.08521279,-0.083969471,-0.081042547,-0.077256939,-0.073589273,-0.07094722,-0.069975762,-0.070932853,-0.073656749,-0.077623324,-0.08207096,-0.086158484,-0.089120259,-0.090390343,-0.089680406,-0.087008852,-0.082687254,-0.077273357,-0.071498733,-0.066176541,-0.062094119,-0.059897926,-0.059984161,-0.062414393,-0.066877903,-0.072718187,-0.079029332,-0.084811193,-0.089155212,-0.091421086,-0.091362941,-0.089173711,-0.085435949,-0.08099074,-0.076757015,-0.073545061,-0.071907273,-0.072056761,-0.073864584,-0.076925528,-0.080666731,-0.084467227,-0.087760433,-0.090102914,-0.091206745,-0.090944014,-0.089337018,-0.086545609,-0.082855961,-0.078666864,-0.074464494,-0.070777256,-0.068108729,-0.06685643,-0.067233089,-0.069211274,-0.072509357,-0.076627275,-0.080927348,-0.08474287,-0.087489701,-0.088755987,-0.088352408,-0.086317124,-0.082881848,-0.078413988,-0.073352267,-0.068149604,-0.063229684,-0.058956064,-0.055608215,-0.053359207,-0.052254242,-0.052195344,-0.052941747,-0.054135253,-0.055354098,-0.056189395,-0.056328479,-0.055623598,-0.054125297,-0.052068196,-0.049810402,-0.047742099,-0.046189021,-0.045338679,-0.04521037,-0.045676156,-0.046523888,-0.047540215,-0.048586053,-0.049640715,-0.050802372,-0.05224756,-0.054165605,-0.056690769,-0.059853469,-0.063563384,-0.067625129,-0.071776419,-0.075733061,-0.079226492,-0.082026571,-0.083951484,-0.08487361,-0.084731709,-0.083555041,-0.081495942,-0.078858041,-0.076102153,-0.07381402,-0.072627787,-0.073113555,-0.07565165,-0.080324986,-0.086860433,-0.094639691,-0.102782803,-0.110288329,-0.116199468,-0.11975955,-0.120524902,-0.118416075,-0.113705092,-0.106951238,-0.098906406,-0.090411535,-0.082299632,-0.075312112,-0.070028142,-0.066804633,-0.065727931,-0.066584941,-0.068867162,-0.071821658,-0.074556059,-0.076190907,-0.076036028,-0.073754022,-0.069469022,-0.063786073,-0.057705208,-0.052440091,-0.049176549,-0.048823906,-0.051816017,-0.058007872,-0.066690666,-0.076719799,-0.086724514,-0.095351527,-0.101491594,-0.104447052,-0.104015852,-0.100487624,-0.094564238,-0.087227752,-0.079581692,-0.072689302,-0.067427679,-0.064372249,-0.0637232,-0.065283408,-0.068494388,-0.072530857,-0.07644503,-0.079340338,-0.080543959,-0.079742661,-0.077049914,-0.072985028,-0.068364715,-0.064129089,-0.061141347,-0.060007854,-0.060960368,-0.063825801,-0.068085901,-0.073006348,-0.077798692,-0.081773692,-0.084451728,-0.0856119,-0.085280479,-0.083675415,-0.081131763,-0.078031804,-0.074754934,-0.071650454,-0.069026165,-0.067140893,-0.066190992,-0.066287897,-0.067432261,-0.069496128,-0.072225111,-0.075267296,-0.078226561,-0.080728944,-0.082485249,-0.083333584,-0.083251864,-0.08234009,-0.08078166
-0.071692041,-0.072114501,-0.072887769,-0.073837383,-0.074745263,-0.075388455,-0.075592627,-0.07528635,-0.074537325,-0.073553823,-0.072643673,-0.072136656,-0.072289482,-0.073200685,-0.074762456,-0.076667032,-0.07846955,-0.079692176,-0.079941577,-0.079007598,-0.076916785,-0.073928113,-0.070475273,-0.067074426,-0.064223914,-0.062320971,-0.061611418,-0.0621756,-0.06394237,-0.066716898,-0.070209065,-0.074055938,-0.077840566,-0.081115866,-0.083443209,-0.08444982,-0.083899235,-0.08175903,-0.078244379,-0.073817898,-0.06913601,-0.064946939,-0.061960477,-0.06071954,-0.061504456,-0.064292325,-0.068778308,-0.074448556,-0.080681428,-0.086848818,-0.092394085,-0.096874831,-0.099972943,-0.101485311,-0.101312603,-0.099459239,-0.096047537,-0.091337506,-0.085736026,-0.079778766,-0.074075817,-0.069225016,-0.065710393,-0.06381179,-0.063551784,-0.064697026,-0.066815736,-0.069376577,-0.071862154,-0.073866941,-0.075155722,-0.075672146,-0.075502989,-0.074816622,-0.073799789,-0.072613698,-0.071380281,-0.070196488,-0.069163516,-0.068412786,-0.068112845,-0.068449754,-0.069584553,-0.071600697,-0.074458643,-0.077972706,-0.081818024,-0.085566166,-0.088739987,-0.09087481,-0.091574324,-0.090554683,-0.087676098,-0.082964958,-0.07662932,-0.069066842,-0.060859014,-0.052742086,-0.045546202,-0.040100777,-0.037114895,-0.037052725,-0.040031481,-0.04576958,-0.053604165,-0.062581652,-0.071606754,-0.079620022,-0.085766174,-0.089517958,-0.090732269,-0.089632943,-0.086732544,-0.082718234,-0.078330947,-0.074262409,-0.071083592,-0.069205766,-0.068865863,-0.070124654,-0.072869241,-0.076818475,-0.081536918,-0.086466291,-0.090980852,-0.094465611,-0.096406606,-0.096474956,-0.094584462,-0.090907651,-0.085845975,-0.079962548,-0.073895834,-0.068276201,-0.063663062,-0.060510003,-0.05915315,-0.059808998,-0.062565986,-0.067360372,-0.07393932,-0.081827506,-0.090322264,-0.098541638,-0.105538348,-0.110473061,-0.112818311,-0.112547106,-0.11025395,-0.107163755,-0.105004888,-0.105751405,-0.111269078,-0.122922885,-0.141214914,-0.165519274,-0.193966235,-0.22350542,-0.250152429,-0.26939882,-0.27674455,-0.268295652,-0.241358214,-0.194953046,-0.130175053,-0.05032969,0.039201893,0.131386293,0.218226354,0.291646047,0.344462151,0.371305942,0.369352843,0.338738655,0.282586172,0.206627976,0.118478093,0.026663429,-0.060436532,-0.135583243,-0.193465687,-0.231181165,-0.248365636,-0.246984925,-0.230845656,-0.204917463,-0.174573463,-0.144855312,-0.119855676,-0.102288443,-0.093288821,-0.092454084,-0.098103652,-0.107707289,-0.11840626,-0.127538713,-0.133081133,-0.133934092,-0.130011077,-0.122128458,-0.111734446,-0.100545961,-0.090177264,-0.081839383,-0.076166416,-0.073190217,-0.072448098,-0.073178826,-0.074547358,-0.075840973,-0.07659615,-0.076640308,-0.076057121,-0.075101718,-0.074098643,-0.073351319,-0.073080405,-0.073395336,-0.074293218,-0.075674916,-0.077369389,-0.079161688,-0.080824082,-0.082150933,-0.082995574,-0.083303018,-0.083128726,-0.08263373,-0.082051358,-0.081629673,-0.081563374,-0.081935232,-0.082686972,-0.083631848,-0.084507945,-0.085056966,-0.085103153,-0.084605257,-0.08366245,-0.082470525,-0.08124242,-0.08012076,-0.079114479,-0.07808467,-0.076788551,-0.074970296,-0.072470387,-0.069317209,-0.065768744,-0.062287218,-0.059450462,-0.057823504,-0.057826095,-0.059632571,-0.063129904,-0.067941841,-0.073508029,-0.079193018,-0.084395263,-0.088631154,-0.091580955,-0.093097321,-0.093187584,-0.09198501,-0.089721214,-0.086704383,-0.083299958,-0.079905939,-0.076916205,-0.074671505,-0.073406291,-0.073206064,-0.073991003,-0.075535904,-0.077525433,-0.079631206,-0.081588126,-0.083245621,-0.084576401,-0.085639145,-0.086507698,-0.087192125,-0.087581575,-0.087433244,-0.08641733,-0.084209224,-0.080603625,-0.075616269,-0.06954065,-0.062938987,-0.056564877,-0.051233768,-0.047670897,-0.046370959,-0.047499015,-0.050850449,-0.055873525,-0.061745739,-0.067487643,-0.072095785,-0.074678201,-0.074578961,-0.071480141,-0.065469643,-0.057062535,-0.04716454,-0.036971509,-0.027809066,-0.020930835,-0.017307854,-0.017450918,-0.021307201,-0.028260597,-0.037243365,-0.04694021,-0.056042044,-0.063492749,-0.068672824,-0.071479357,-0.07228823,-0.071814296,-0.070910063,-0.070356292,-0.070695702,-0.072145284,-0.074598872,-0.077707202,-0.081004541,-0.084043644,-0.086504662,-0.088256024,-0.089361042,-0.090037959,-0.090589837,-0.091323029,-0.092470414,-0.094130866,-0.096232121,-0.098521662,-0.100589013,-0.101921221,-0.101989479,-0.100358137,-0.09679886,-0.091385408,-0.084541969,-0.077023077,-0.069816396,-0.063978521,-0.060433547,-0.059778212,-0.062140787,-0.067131383,-0.073900478,-0.081295858,-0.088083146,-0.093179105,-0.095844597,-0.095795967,-0.093215985,-0.088671395,-0.082966124,-0.076971199,-0.071472114,-0.067063248,-0.064101611,-0.062714864,-0.062846245,-0.064314622,-0.066870996,-0.070240641,-0.074148686,-0.078332986,-0.082550032,-0.086577885,-0.090216907,-0.093286871,-0.095619548,-0.097048922,-0.097405165,-0.096520698,-0.094255068,-0.09053934,-0.085431858,-0.079168842,-0.072189101,-0.065114985,-0.05868185,-0.053623403,-0.050535649,-0.049752366,-0.051266091,-0.054719106,-0.059471207,-0.064730235,-0.069713852,-0.07380243,-0.076645854,-0.078200645,-0.078693591,-0.078527849,-0.078161188,-0.077990035,-0.07826679,-0.079064624,-0.080288633,-0.081720057,-0.083074775,-0.084059153,-0.084413448,-0.083941451,-0.082531065,-0.080171631,-0.076970151,-0.073162503,-0.069110746,-0.065276926,-0.062168523,-0.060259772,-0.059903115,-0.061251949,-0.064216302,-0.06846617,-0.073484694,-0.078659227,-0.0833875,-0.087172322
-0.080807119,-0.082777239,-0.083187113,-0.082074198,-0.079728716,-0.07662435,-0.073323302,-0.070378748,-0.068253403,-0.067264179,-0.067553873,-0.069084857,-0.071648508,-0.074886985,-0.078328238,-0.081437668,-0.083688252,-0.084644941,-0.084050906,-0.081896233,-0.078447877,-0.074225181,-0.069917608,-0.066257189,-0.06387255,-0.063159082,-0.064197715,-0.066742868,-0.070281821,-0.074148712,-0.077662558,-0.080254422,-0.081555109,-0.081428941,-0.079956182,-0.0773806,-0.0740451,-0.070335886,-0.066646122,-0.063357984,-0.060832568,-0.059394011,-0.05929864,-0.060689705,-0.06354912,-0.067664548,-0.072629971,-0.07788974,-0.082822834,-0.086850227,-0.089539137,-0.090677074,-0.090296647,-0.088646364,-0.08611839,-0.083155932,-0.080166813,-0.077464816,-0.075248869,-0.073616391,-0.072596414,-0.072183915,-0.072360268,-0.073093781,-0.074324904,-0.075948279,-0.077805407,-0.079696665,-0.081412203,-0.082771876,-0.083659069,-0.084034554,-0.083924179,-0.083385204,-0.082465896,-0.081177332,-0.07949282,-0.077379813,-0.074855296,-0.072043721,-0.069211514,-0.066756719,-0.06514557,-0.064805669,-0.066001928,-0.068730672,-0.07266567,-0.077177432,-0.081427485,-0.08451863,-0.08566679,-0.08435458,-0.080432445,-0.074147843,-0.066101456,-0.057146144,-0.048254611,-0.040383631,-0.034357237,-0.030781692,-0.029995595,-0.03205205,-0.036727856,-0.043555932,-0.051879329,-0.06092554,-0.06989708,-0.078069004,-0.084878525,-0.089989219,-0.093314859,-0.094996114,-0.095335323,-0.09470641,-0.093464536,-0.091880097,-0.090113628,-0.088234394,-0.086270571,-0.084268147,-0.082333023,-0.080637364,-0.079384918,-0.078745986,-0.078785284,-0.079410474,-0.080363874,-0.081266464,-0.081706219,-0.081347904,-0.080033725,-0.077846042,-0.075113956,-0.072361147,-0.070207782,-0.069249814,-0.069942068,-0.072507349,-0.076885068,-0.082723522,-0.089413149,-0.096155345,-0.102061751,-0.106279725,-0.108137974,-0.107300427,-0.103907136,-0.098671673,-0.092899859,-0.088399268,-0.087264645,-0.091549733,-0.102865473,-0.121970456,-0.14843398,-0.180449554,-0.214856205,-0.24739002,-0.273146656,-0.287196272,-0.285263891,-0.264375809,-0.223377515,-0.163247872,-0.087162916,-0.000294789,0.090637611,0.178022328,0.254145945,0.312039076,0.346280051,0.353657115,0.333596339,0.288282975,0.222439279,0.142769331,0.057134363,-0.026429359,-0.100705361,-0.160151792,-0.201484579,-0.223904411,-0.228947065,-0.220003791,-0.201614142,-0.178666432,-0.155645202,-0.13604217,-0.12200481,-0.114246094,-0.112191579,-0.11430486,-0.11851379,-0.122657552,-0.124885063,-0.123952987,-0.119392225,-0.111531916,-0.10138851,-0.09044404,-0.080352078,-0.072620725,-0.068327232,-0.067915829,-0.071117581,-0.07700925,-0.084200681,-0.091113097,-0.096290493,-0.098678845,-0.097815397,-0.093891469,-0.087681527,-0.08036115,-0.073259231,-0.067600085,-0.064287449,-0.06376711,-0.06598361,-0.0704254,-0.076237461,-0.082373313,-0.087759087,-0.091448054,-0.092750854,-0.091331578,-0.087261905,-0.081025771,-0.073468222,-0.065686726,-0.058872232,-0.054119354,-0.052236494,-0.053593156,-0.058039361,-0.064919767,-0.073185122,-0.081580881,-0.088873837,-0.094068123,-0.096564924,-0.096235077,-0.093395948,-0.088707126,-0.083016959,-0.077199263,-0.072015683,-0.068026467,-0.065555978,-0.06470442,-0.065388387,-0.06739148,-0.070411164,-0.074095939,-0.078074097,-0.081978805,-0.085473464,-0.088277427,-0.090187868,-0.091091678,-0.090962914,-0.089846233,-0.087832535,-0.085036891,-0.081588402,-0.077636576,-0.073370671,-0.069040745,-0.064965262,-0.061512545,-0.059051902,-0.057882234,-0.058156948,-0.0598294,-0.062640184,-0.066156411,-0.069857076,-0.073243074,-0.075941087,-0.077771147,-0.078758481,-0.079087973,-0.079018215,-0.078785112,-0.078527763,-0.0782607,-0.077899445,-0.077326915,-0.076473202,-0.075376212,-0.074197452,-0.073183394,-0.072582919,-0.072547971,-0.073052056,-0.073856798,-0.074541922,-0.07459383,-0.073529175,-0.071018746,-0.066977057,-0.061593793,-0.055300872,-0.04868728,-0.042387064,-0.036970314,-0.032862003,-0.030302022,-0.029346207,-0.029897448,-0.031751103,-0.034640479,-0.038274,-0.042362556,-0.046640133,-0.050881498,-0.054917935,-0.058648002,-0.062037807,-0.065106488,-0.067897513,-0.070443243,-0.072735636,-0.074716969,-0.076299344,-0.077411541,-0.078059852,-0.078380448,-0.078658947,-0.079299915,-0.080743912,-0.083347885,-0.087260087,-0.092327559,-0.098069195,-0.103731266,-0.108419321,-0.111277771,-0.111673269,-0.109335447,-0.104419446,-0.097475951,-0.089339273,-0.08096493,-0.073258921,-0.066938845,-0.062453731,-0.059970042,-0.05941245,-0.060535514,-0.062999547,-0.066430197,-0.070453084,-0.074707049,-0.078847565,-0.082553165,-0.085542693,-0.087602754,-0.088616992,-0.088585171,-0.087622129,-0.085933491,-0.083773609,-0.081397872,-0.079023395,-0.076808451,-0.074853294,-0.073216681,-0.071936765,-0.071044748,-0.070564508,-0.070499468,-0.070815387,-0.07143123,-0.072227924,-0.073077263,-0.07388349,-0.074622271,-0.07535956,-0.076237798,-0.077427796,-0.079057835,-0.081141964,-0.083533014,-0.085920456,-0.087880181,-0.088966755,-0.088824188,-0.087283954,-0.084421584,-0.080554899,-0.076184084,-0.071890508,-0.068222121,-0.065594942,-0.064232776,-0.06415376,-0.065198003,-0.067080223,-0.069448197,-0.071932082,-0.074178579,-0.075873168,-0.07675912,-0.076661414,-0.075517632,-0.07340934,-0.07058066,-0.067429348,-0.06446123,-0.062209904,-0.061136289,-0.061532071,-0.063453276,-0.066703681,-0.070874212,-0.075428344,-0.079810219,-0.083546379,-0.086315552,-0.087972491,-0.088527148,-0.088094072,-0.086834205,-0.08491004,-0.08246651,-0.079637773
